timestamp,C1,C2,C3,C4,C5,C6,C7,C8,
26750030960,2,34,73,59,2,-27,-14,-15,
26750030960,51,33,-7,-75,-38,0,12,15,
26750036239,-24,-66,-64,-8,-15,9,-7,-5,
26750036239,3,67,50,90,-5,15,1,5,
26750043761,3,-32,-75,-110,-26,10,0,4,
26750043761,6,16,20,90,25,-22,2,11,
26750051113,5,-24,-21,-28,-16,-9,-2,14,
26750051113,-22,-26,-2,-12,-6,3,-5,-8,
26750060002,30,8,-15,27,22,22,22,23,
26750060002,-32,5,-38,-91,-61,-38,-43,-66,
26750075651,48,23,56,81,115,-1,11,15,
26750075651,-38,56,79,10,-91,14,-2,-13,
26750081144,10,-5,-43,22,55,13,1,13,
26750081144,-24,-76,21,10,30,28,19,24,
26750096129,5,77,38,1,-50,-33,-17,-27,
26750096129,-34,-125,-45,-46,-10,-6,-1,-14,
26750105013,28,32,-38,-39,54,5,5,4,
26750105013,-35,67,52,60,5,-12,-19,-36,
26750120161,14,73,17,22,8,-1,-1,1,
26750120161,8,-80,-50,-35,35,1,12,25,
26750126571,-50,-11,-95,-16,-75,-13,-8,-10,
26750126571,30,-90,-94,-40,-51,11,9,41,
26750148710,-40,-54,-90,-58,20,7,0,-10,
26750148710,74,127,96,65,19,-13,6,2,
26750156149,-13,-95,-57,-76,-18,-8,-12,-4,
26750156149,-22,0,4,18,-25,-5,-17,-13,
26750171288,9,-39,-55,-81,6,29,7,9,
26750171288,0,-40,-45,8,-21,-4,20,25,
26750180167,3,94,105,121,-59,-10,-13,-36,
26750180167,0,-2,-45,-55,34,2,0,-1,
26750186571,-44,0,14,21,-79,-17,7,-18,
26750186571,49,28,-49,51,106,1,1,23,
26750193692,-2,-70,-46,-40,-33,15,-1,7,
26750193692,14,-52,-83,-73,7,13,-6,2,
26750201152,-22,-56,-60,-18,-45,9,-2,1,
26750201152,4,83,43,16,77,-3,-9,-12,
26750208606,-16,19,12,-25,1,-19,-6,-10,
26750208606,9,7,58,59,39,19,6,9,
26750223780,-11,6,-7,-55,-48,-28,-12,-18,
26750223780,-9,-24,-74,-56,-100,-12,0,-16,
26750231169,34,73,112,62,114,-27,-6,-19,
26750231169,-51,15,127,-6,74,12,0,-12,
26750246779,24,-59,-88,-11,-5,19,17,35,
26750246779,-8,-1,39,-35,-53,-17,-8,13,
26750253717,16,-46,-22,-9,-3,-18,-8,-4,
26750253717,22,-7,-62,27,-59,28,11,15,
26750262531,-50,-55,47,45,28,-1,-5,0,
26750262531,-22,-60,-41,-75,-22,-3,-12,-17,
26750268847,-6,60,20,-31,-10,-36,-16,-29,
26750268847,26,13,-84,103,109,16,28,33,
26750283644,-36,-76,-43,-120,-87,-20,-33,-31,
26750283644,16,97,100,105,120,-12,6,-6,
26750293230,-16,-107,-99,-78,-19,-12,-9,-5,
26750293230,32,-2,-97,3,-88,27,23,24,
26750306158,21,31,38,100,49,26,-1,14,
26750306158,-25,-41,-62,-35,-51,-1,-11,-4,
26750314974,-11,7,55,24,12,15,16,15,
26750314974,-8,57,127,5,1,-36,-19,-38,
26750336280,-12,-88,-73,-27,36,-6,-8,11,
26750336280,9,99,99,36,-11,-2,1,-2,
26750343937,-30,-53,-48,-34,19,9,-4,-8,
26750343937,49,62,71,2,60,31,24,47,
26750358896,-29,0,-10,-1,-42,9,-4,-13,
26750358896,-3,-72,-63,-68,97,6,1,0,
26750373692,5,-55,-68,-64,-85,0,4,3,
26750373692,-8,56,48,55,25,-20,-13,-24,
26750381389,-36,-16,25,21,88,-12,-3,-6,
26750381389,17,-12,6,2,-45,-20,-4,-9,
26750388662,50,25,-39,-11,-80,21,11,25,
26750388662,6,-43,1,40,41,10,0,22,
26750396139,-3,-79,-103,-72,-58,10,5,8,
26750396139,3,68,89,53,80,0,-4,-9,
26750411287,19,-18,-48,-15,-18,2,-1,-2,
26750411287,-31,16,-19,8,62,-9,-6,-16,
26750426370,-3,-27,-30,10,-13,2,-1,-8,
26750426370,2,-22,-21,-45,-51,6,2,17,
26750441090,-11,37,19,97,9,-25,-8,-19,
26750441090,-42,-65,-30,-74,-41,-3,-8,1,
26750456092,-35,21,17,-6,-45,-7,-17,-19,
26750456092,-12,-42,-65,-4,-61,-2,5,4,
26750471052,-32,37,46,-2,50,-3,-14,-26,
26750471052,-18,99,75,22,20,-2,8,-12,
26750478579,54,5,-22,-17,44,-17,0,15,
26750478579,-7,-104,-66,1,-39,17,13,21,
26750493605,-58,23,121,-5,-53,14,-11,-39,
26750493605,68,106,121,18,5,-14,12,12,
26750508824,32,7,-42,-62,6,-5,4,22,
26750508824,-36,57,25,49,66,12,1,-6,
26750523580,-12,-88,-72,-23,-32,-18,-14,-25,
26750523580,32,61,22,72,31,11,5,23,
26750531114,-45,-19,10,-81,-70,-10,-20,-40,
26750531114,-18,-39,4,-26,-43,3,-8,-3,
26750553818,6,43,82,61,14,-4,8,-10,
26750553818,-39,2,51,-38,21,-25,-17,-32,
26750561211,44,-37,2,26,10,4,17,35,
26750561211,-33,1,49,72,73,1,-8,-18,
26750576376,33,11,-38,-75,-48,-15,-12,-5,
26750576376,-20,-117,-126,-37,-79,32,17,20,
26750591194,46,62,-10,97,107,39,37,49,
26750591194,-32,-1,-32,-42,-37,-9,-13,-22,
26750606203,-8,-29,-128,-95,-83,-26,-26,-35,
26750606203,9,-16,-72,-15,26,22,15,31,
26750621142,-15,91,127,116,47,-41,-10,-14,
26750621142,5,10,-17,-23,-22,-20,-9,-7,
26750636248,15,21,-25,52,9,-7,29,20,
26750636248,-24,-109,-50,-113,58,-14,-25,-25,
26750643798,-5,51,69,31,10,23,-1,6,
26750643798,4,9,17,34,3,-4,-10,-6,
26750651323,16,-23,-75,-60,-15,3,4,18,
26750651323,0,-7,9,1,-6,2,-4,0,
26750673774,-55,-61,-47,-3,-2,-3,-9,-15,
26750673774,48,119,118,101,14,9,19,17,
26750681154,-25,-67,-60,-128,-7,-12,-22,-25,
26750681154,101,88,17,108,-24,0,37,44,
26750696182,-29,-44,-50,-63,-48,-11,-14,-13,
26750696182,-36,81,-7,50,-50,-7,-10,-18,
26750703615,33,-113,-125,-89,-43,44,24,20,
26750703615,33,10,48,54,69,-5,19,38,
26750718795,-9,36,15,5,12,6,4,-1,
26750718795,-53,-76,-87,-97,24,-8,-21,-52,
26750733810,-43,-93,-77,-42,-3,-2,2,14,
26750733810,19,62,52,34,-15,-19,-8,-4,
26750748756,10,-32,-54,-45,69,11,0,-4,
26750748756,-2,-92,-128,-27,-24,18,-1,9,
26750756123,28,55,-13,41,4,-11,-4,6,
26750756123,10,-32,-46,-70,4,29,3,7,
26750771118,-7,23,94,-33,-39,-30,-11,-21,
26750771118,-76,2,-32,-64,-18,-24,-31,-59,
26750786295,28,-27,-43,79,-1,-2,1,9,
26750786295,-9,-49,12,-94,-5,8,15,16,
26750793716,46,73,-3,45,13,-4,3,15,
26750793716,10,13,21,91,30,6,1,10,
26750808580,-53,-3,-53,-116,-51,-40,-37,-55,
26750808580,-15,-98,-65,-32,-22,13,4,18,
26750816264,-10,76,115,99,9,-3,-2,-15,
26750816264,-7,-18,-11,-28,-58,0,4,-10,
26750831113,-40,-90,-59,-21,43,-2,-10,-10,
26750831113,-2,-79,-128,-11,-45,12,9,12,
26750846059,-26,26,56,-16,-14,-10,-2,-2,
26750846059,-2,61,-25,-64,-7,-11,-7,-21,
26750861219,-31,-91,-80,-76,-113,-9,-3,-6,
26750861219,0,11,79,68,92,-17,-5,2,
26750876288,9,-76,-58,-1,11,15,16,40,
26750876288,30,34,4,3,14,24,8,6,
26750891295,58,109,-50,13,19,-24,-6,18,
26750891295,-38,-62,20,-19,11,18,-10,-13,
26750906125,14,51,127,51,91,11,1,-10,
26750906125,31,-3,-53,-128,-83,-32,-8,-10,
26750921198,35,-63,-96,-78,-52,-17,8,15,
26750921198,18,-8,-6,28,24,22,16,35,
26750936343,3,41,64,17,42,4,2,-8,
26750936343,0,-72,-74,-73,-11,-7,-8,-2,
26750943636,4,113,105,28,27,4,3,-1,
26750943636,-25,-78,-69,-72,-54,17,-6,1,
26750951224,-21,-31,80,24,-24,0,-10,-20,
26750951224,-6,75,-38,-31,13,-10,-3,-37,
26750966134,-20,-96,-54,-36,-37,16,0,20,
26750966134,30,23,69,34,28,3,9,32,
26750973768,-17,-99,-117,-54,35,16,-9,-3,
26750973768,-15,20,29,29,-43,-8,-8,-12,
26750988797,-11,68,8,71,-79,-26,-8,-32,
26750988797,3,-5,40,-18,110,2,11,-4,
26750996119,27,52,43,78,-84,10,12,18,
26750996119,-8,-45,-54,-28,-18,-11,-9,-13,
26751011045,20,-20,-14,13,54,17,24,35,
26751011045,-18,-45,-47,-38,-37,14,4,4,
26751026254,-7,16,11,41,24,31,5,3,
26751026254,49,47,27,52,11,-35,1,14,
26751033656,-14,-102,-63,-60,-1,-11,-17,-12,
26751033656,9,36,-12,11,-35,18,4,8,
26751048595,30,93,91,86,34,-15,10,20,
26751048595,-42,-69,-126,-85,4,2,-12,-2,
26751063546,-20,25,89,48,-40,24,13,4,
26751063546,-5,-43,-15,-55,15,4,5,0,
26751078606,-26,-50,-78,-34,-45,-13,-7,-21,
26751078606,48,85,99,92,86,-7,6,15,
26751116339,-36,-18,-2,-30,-31,3,8,-1,
26751116339,24,-49,-59,-51,-3,8,12,21,
26751123583,-80,8,-39,-60,-17,14,-21,-38,
26751123583,72,-17,-58,59,-44,2,17,29,
26751138659,-18,5,33,82,25,11,4,2,
26751138659,-14,84,95,35,22,-29,-19,-27,
26751153590,31,55,58,63,67,19,10,0,
26751153590,-41,-42,-4,-105,6,-25,-17,-19,
26751168784,22,-65,-128,-121,-22,-40,-26,-23,
26751168784,5,-71,-34,-10,-8,34,18,43,
26751191357,-2,101,127,125,-26,8,19,13,
26751191357,-7,44,39,-6,14,-4,-16,-20,
26751206175,7,-9,-35,-16,68,-20,6,17,
26751206175,-12,22,76,16,12,6,0,-9,
26751221171,5,-28,-36,-43,29,-15,-10,-9,
26751221171,8,-51,-57,23,39,21,7,30,
26751228654,8,0,80,-97,-67,-6,4,10,
26751228654,-15,66,57,85,-20,13,1,-20,
26751243741,33,49,33,30,-24,-8,0,13,
26751243741,-31,-24,28,50,7,0,6,15,
26751251244,-19,-39,15,2,47,22,5,9,
26751251244,32,6,-51,36,26,0,-6,3,
26751266269,-53,17,2,8,-32,-8,-7,-19,
26751266269,29,57,-2,-30,12,-28,-16,-19,
26751273574,-14,-2,78,18,29,10,18,16,
26751273574,10,-77,-116,-82,-115,-33,-22,-29,
26751296085,4,48,32,6,10,14,8,29,
26751296085,22,-19,8,30,41,22,-1,10,
26751303745,-17,-29,-103,-24,6,-3,-12,-11,
26751303745,-24,-62,-24,-20,5,19,-3,-6,
26751318756,65,113,77,89,10,19,23,29,
26751318756,-36,-124,-102,-128,-78,-6,-10,-3,
26751333634,27,63,88,98,42,26,21,29,
26751333634,15,6,74,6,-34,-3,6,8,
26751348756,-4,-43,-128,-49,-8,-20,-29,-42,
26751348756,-19,85,95,11,68,-25,-2,-3,
26751363623,7,72,127,116,105,12,19,17,
26751363623,6,-83,-79,-45,18,7,-7,13,
26751371083,-24,-2,40,-16,52,-1,-2,0,
26751371083,8,73,25,13,-9,-12,-8,-34,
26751393750,-60,-113,-86,-40,-39,-5,-5,-1,
26751393750,23,-34,-77,-45,5,12,9,12,
26751401302,4,-3,17,64,-14,4,6,-12,
26751401302,-5,58,108,30,90,-12,-10,-20,
26751408588,7,-52,-110,-54,-41,2,7,20,
26751408588,-8,65,127,19,39,-9,-12,-11,
26751416113,-10,-99,-98,-83,-102,18,8,3,
26751416113,10,6,-1,36,-11,9,12,15,
26751431255,-13,-12,-44,-6,41,-15,-15,-27,
26751431255,6,44,58,-7,21,-7,9,-6,
26751438660,-3,-30,-94,-25,3,-12,-8,-5,
26751438660,5,47,-27,28,-25,5,-15,5,
26751446277,-8,-59,-31,-60,-24,2,-2,8,
26751446277,25,-4,-6,-45,-18,7,10,1,
26751453697,-40,92,76,1,27,-31,-18,-32,
26751453697,35,-32,-70,-16,28,-3,3,23,
26751468889,-9,-93,-96,-61,-102,20,1,6,
26751468889,42,103,51,87,53,-4,1,10,
26751476334,-35,-66,-11,-27,7,-6,-10,-32,
26751476334,23,-83,-74,-19,0,-21,4,30,
26751498788,14,-41,-25,-34,-6,19,4,7,
26751498788,-37,-23,-2,47,-126,10,23,22,
26751506157,10,-30,-27,-10,76,-17,-19,-1,
26751506157,-29,95,105,5,29,-18,-9,-24,
26751521282,-53,121,127,117,37,-25,-9,-40,
26751521282,44,-28,-71,-128,2,-19,-25,-30,
26751528613,6,-57,-41,-51,28,0,3,18,
26751528613,-22,26,-7,54,69,1,-6,-17,
26751536178,11,48,-7,-95,-3,-35,-34,-31,
26751536178,-29,-80,-41,-47,-8,4,8,-5,
26751543839,41,127,119,73,-7,-5,6,-12,
26751543839,-23,-128,-128,-96,-41,-6,-5,0,
26751551355,24,29,13,63,-46,15,16,28,
26751551355,9,-23,-45,-29,-4,2,0,-8,
26751566168,-20,-18,75,-59,-65,-10,-7,1,
26751566168,42,109,115,88,69,25,28,29,
26751573916,-19,-63,-61,-54,24,9,-8,-3,
26751573916,4,126,127,127,10,-13,-7,-26,
26751588567,-29,-76,-103,-93,-15,-12,-9,-3,
26751588567,-1,-47,-116,-8,15,22,3,18,
26751603565,49,80,-85,38,45,-7,-1,-6,
26751603565,1,-36,-7,-76,-11,-21,-3,0,
26751618705,-29,-40,-3,75,-4,21,-2,-1,
26751618705,14,58,76,-7,-21,-21,-5,-4,
26751633808,-27,-105,-112,-59,-31,-10,-22,-16,
26751633808,-29,121,97,67,-28,-1,8,-31,
26751641331,13,-95,-123,-95,56,0,-1,12,
26751641331,67,81,100,92,0,24,34,58,
26751663598,-29,-37,-53,-97,-5,4,-19,-22,
26751663598,16,-7,55,31,-33,10,-1,9,
26751678576,-15,64,103,127,79,23,50,54,
26751678576,29,-94,-109,-91,-36,-19,-24,-7,
26751693795,1,1,24,37,52,8,-2,-7,
26751693795,-33,-23,-33,-108,-7,-14,-20,-27,
26751701305,4,3,-81,52,58,23,19,23,
26751701305,-13,33,52,-36,-1,-40,-24,-35,
26751723830,-4,81,119,87,-112,-6,-17,-30,
26751723830,-26,-128,-47,38,-15,11,7,17,
26751731293,18,49,15,8,-4,29,7,18,
26751731293,18,-15,-34,-36,22,2,-7,-10,
26751746161,-41,45,59,-18,-14,-5,8,-1,
26751746161,68,-3,-58,-9,-9,-16,0,10,
26751753626,-14,-12,12,17,21,15,1,0,
26751753626,-47,-107,-128,-70,-49,-11,-12,-16,
26751768640,56,102,66,88,127,-15,-8,-24,
26751768640,-47,-27,-51,-64,30,-13,-17,-16,
26751783646,-18,-14,23,-50,-23,-32,-19,-13,
26751783646,-43,19,-18,6,7,-13,-10,-26,
26751791268,-16,-8,56,-38,34,-18,-15,-21,
26751791268,29,53,54,111,-15,0,31,31,
26751806040,9,-97,-85,-58,-50,-4,-8,9,
26751806040,-45,97,91,12,11,-8,-19,-32,
26751813633,29,36,78,44,-36,16,12,2,
26751813633,15,-54,-36,-64,-105,-2,-4,6,
26751828607,-17,-24,-59,25,78,20,6,5,
26751828607,54,50,92,-13,42,-21,-10,0,
26751851345,10,-4,-5,-81,-5,-10,-6,-9,
26751851345,-49,-35,-62,16,-40,17,-2,-14,
26751858848,22,90,109,44,22,-61,-15,-23,
26751858848,-18,-16,-19,-25,-8,-14,4,11,
26751881343,-5,55,-49,-10,-3,10,-6,-5,
26751881343,34,-85,-64,-35,21,-2,8,16,
26751888666,-27,-23,1,-92,31,3,-10,-15,
26751888666,-27,-76,-41,-23,-98,21,-3,6,
26751903716,14,30,34,52,80,10,10,17,
26751903716,-1,103,30,-34,-10,-26,-13,-51,
26751911043,4,-10,29,16,1,20,13,34,
26751911043,29,58,87,10,-72,11,9,10,
26751918670,-44,-104,-77,-82,-28,22,-2,-7,
26751918670,28,107,122,127,47,8,-3,-13,
26751926135,-21,-50,-121,-80,-34,-31,-26,-37,
26751926135,-21,2,96,22,-62,-4,8,13,
26751933832,-36,41,46,-6,44,-23,-21,-47,
26751933832,60,-14,-67,-12,67,12,22,40,
26751956357,-21,56,89,64,-73,-7,3,-18,
26751956357,38,-105,-128,-85,23,20,19,50,
26751971336,71,69,87,21,60,5,11,24,
26751971336,-5,55,0,64,19,5,-9,-20,
26751978656,-30,-65,-8,-39,-49,-17,4,12,
26751978656,7,59,83,43,47,-1,3,-2,
26751993847,29,1,-54,-58,-81,-13,3,-1,
26751993847,0,-61,-84,26,0,21,10,25,
26752001158,-29,48,60,43,51,6,-5,0,
26752001158,-18,-48,-68,-79,-122,-10,-9,-19,
26752008820,17,-68,-95,25,60,20,9,36,
26752008820,-6,18,41,94,108,-1,0,6,
26752023576,-14,43,72,103,-20,-9,16,6,
26752023576,-38,-70,-108,-65,-36,17,-5,-7,
26752031279,19,38,47,48,95,9,4,3,
26752031279,22,110,70,50,-22,-8,8,0,
26752046098,-25,-128,-88,-128,-30,1,-10,-6,
26752046098,55,68,119,103,30,21,22,31,
26752053650,-28,-47,-50,-42,-20,-16,-9,-8,
26752053650,-8,-25,10,-5,30,3,1,-8,
26752068815,13,76,57,4,-17,-11,-10,-8,
26752068815,-9,-53,-57,-63,-11,7,6,12,
26752083690,-19,75,127,103,-36,4,-2,-10,
26752083690,9,-30,-98,-44,-71,1,-6,-11,
26752091270,-1,-26,4,6,40,12,1,12,
26752091270,0,32,-81,10,-32,-3,9,8,
26752106171,20,14,43,-52,42,-12,-8,-14,
26752106171,-10,35,41,15,2,-14,-3,-5,
26752113609,-16,-15,9,22,-44,-10,-11,-13,
26752113609,11,41,12,5,-45,-1,1,-9,
26752128618,3,-108,-106,7,41,8,-6,5,
26752128618,-28,63,44,6,16,-22,-6,-15,
26752143639,10,33,1,12,22,14,5,4,
26752143639,-1,51,117,98,-28,-18,-11,-22,
26752151276,-5,-40,-102,-85,8,-9,1,9,
26752151276,-19,-25,-39,35,-53,21,-2,-2,
26752166050,8,-115,-111,-128,-62,5,2,17,
26752166050,56,76,115,113,23,14,29,40,
26752173821,-66,-52,-36,-59,-24,-30,-25,-41,
26752173821,-5,7,12,20,44,-3,3,-2,
26752196086,-31,-96,-93,4,-59,21,-1,-2,
26752196086,7,38,19,-26,36,-2,6,7,
26752211061,-17,-56,-107,-100,-98,-13,-4,-30,
26752211061,-19,-18,-49,42,79,16,1,11,
26752218633,-7,-15,-23,-14,-64,2,-9,-20,
26752218633,18,2,-12,3,5,-19,-5,5,
26752241191,31,-15,49,42,49,27,21,47,
26752241191,-18,-5,-42,-117,12,-12,-25,-27,
26752256089,-2,12,-49,-80,-72,-41,-19,-35,
26752256089,-15,-72,20,-8,-35,7,12,8,
26752263675,13,23,122,0,-37,-6,-5,-4,
26752263675,-22,13,-14,47,40,-2,7,-7,
26752271197,33,-44,-44,-11,48,-16,-7,32,
26752271197,-25,-83,-115,-53,-31,4,-15,-12,
26752278662,42,108,75,82,3,1,7,7,
26752278662,-27,-21,-23,-4,-35,20,3,-15,
26752301291,-21,68,42,-27,57,-27,-21,-41,
26752301291,-4,-53,-111,-7,-59,24,19,17,
26752316175,-40,-35,-52,-20,-15,53,14,14,
26752316175,80,84,96,60,52,-16,-4,17,
26752323618,-14,-92,-106,-44,-7,9,11,32,
26752323618,-12,-68,-82,-48,-13,0,-17,-17,
26752331231,-24,26,102,44,2,-2,14,7,
26752331231,-18,-21,-31,-22,-36,8,4,-7,
26752346162,2,-18,-74,6,12,9,1,-11,
26752346162,18,19,63,-8,-44,-12,-3,2,
26752361063,6,50,44,62,76,-9,-4,-10,
26752361063,-10,-45,-6,-92,-28,-35,-18,-15,
26752376198,5,107,111,15,-7,17,7,-3,
26752376198,-46,-35,61,71,74,-4,-9,-19,
26752383705,-8,-57,-86,-100,-40,-5,-20,-17,
26752383705,1,-31,-45,-1,18,8,-10,-2,
26752391350,13,120,100,102,-10,-20,20,7,
26752391350,-37,-42,-44,-37,-16,-12,-10,-16,
26752413566,20,15,-27,-51,-6,-20,-20,-16,
26752413566,-3,19,-32,37,-11,3,5,5,
26752421027,-2,45,56,32,22,-14,-5,-18,
26752421027,6,-25,-92,-103,7,-13,-5,-3,
26752436068,3,-33,67,71,-56,-16,5,14,
26752436068,-33,-22,-64,-60,62,-8,-19,-35,
26752443812,16,21,80,67,-73,12,14,25,
26752443812,-42,15,-74,-57,16,-5,-21,-38,
26752451098,-15,-110,-112,-34,-58,-9,-15,-4,
26752451098,64,120,127,-5,55,16,14,23,
26752466397,-25,55,-6,73,-24,18,-2,-23,
26752466397,-25,-11,14,-28,-48,-19,-13,-17,
26752473599,13,26,4,12,43,-10,7,9,
26752473599,4,30,76,58,-54,9,14,13,
26752488924,15,-128,-128,-128,-20,-1,-15,0,
26752488924,53,81,60,95,-73,8,17,19,
26752496129,-38,11,-39,-42,20,-17,-6,-8,
26752496129,15,-33,38,25,78,13,6,6,
26752503660,20,-10,29,7,-4,4,7,27,
26752503660,-45,-42,-123,-72,-82,5,-21,-31,
26752518597,4,20,-5,19,5,-3,-12,-31,
26752518597,-22,51,41,-10,-4,-13,8,8,
26752533737,15,65,38,-92,30,-40,-40,-59,
26752533737,34,-71,64,82,-83,8,56,68,
26752541306,-6,24,-28,-32,37,-12,-27,-29,
26752541306,-10,-96,-90,-55,-31,6,1,27,
26752556176,9,118,110,68,103,18,6,8,
26752556176,-12,-119,-128,-101,-46,-2,-17,-11,
26752563601,-33,-44,-71,-38,-5,-21,-6,-24,
26752563601,-11,-54,-85,-80,45,5,-3,14,
26752578552,40,38,80,124,-62,6,19,35,
26752578552,-26,-28,-90,-115,-39,-21,-24,-27,
26752593821,-9,43,126,125,50,6,-1,-2,
26752593821,6,52,5,-75,26,-13,-4,-20,
26752608773,27,-67,-55,-49,-17,5,-2,11,
26752608773,-1,-34,-5,31,-10,15,13,15,
26752623809,5,-6,-51,32,-37,-2,11,9,
26752623809,-13,0,33,-12,29,1,-13,-21,
26752631152,-37,44,35,-38,7,-28,-15,-40,
26752631152,83,68,93,-13,21,-3,11,16,
26752638617,-32,-125,-128,11,34,23,8,30,
26752638617,14,15,36,42,7,9,-4,10,
26752653810,39,-54,-59,-76,-93,-5,10,23,
26752653810,-19,-40,-79,2,1,30,8,10,
26752668770,21,99,89,12,73,-4,13,2,
26752668770,-34,-22,-37,-26,-13,-2,-10,-23,
26752676300,2,34,80,22,-30,5,8,10,
26752676300,35,-53,-112,-56,-10,8,2,13,
26752691101,-58,-61,4,19,-7,10,-2,-11,
26752691101,37,58,86,39,6,-20,14,18,
26752698776,0,-86,-120,-111,16,1,-15,-2,
26752698776,-17,-10,-11,54,-42,5,3,-6,
26752713797,24,65,42,27,70,20,11,22,
26752713797,-28,-59,-3,3,-14,-11,-9,-9,
26752721056,6,11,-16,-16,54,22,12,11,
26752721056,5,45,-42,-18,-65,-7,-2,3,
26752743743,28,0,23,-4,-34,10,-3,5,
26752743743,-4,82,92,88,32,-26,-16,-24,
26752751183,27,104,26,16,40,-18,-11,-30,
26752751183,-2,-54,-78,8,-8,1,3,20,
26752758740,10,-59,-23,-48,23,24,8,16,
26752758740,-62,-56,-80,6,-39,-3,-18,-28,
26752781291,27,60,47,-6,22,-17,-3,2,
26752781291,-13,-78,-87,-49,-24,17,7,17,
26752796119,39,84,103,127,3,6,10,15,
26752796119,-35,7,35,-40,-56,-10,-13,-20,
26752811078,-49,-76,-116,-63,-29,2,-12,-16,
26752811078,9,15,-4,-51,25,-21,-12,-17,
26752818642,-19,-128,-128,-121,-35,-4,-4,13,
26752818642,29,88,20,40,-23,28,13,18,
26752826250,-46,-43,58,23,109,3,-9,-5,
26752826250,44,85,73,-20,-43,-8,5,7,
26752833538,-4,-106,-101,-75,-15,15,11,15,
26752833538,-23,-6,10,77,-29,6,-8,-9,
