timestamp,C1,C2,C3,C4,C5,C6,C7,C8,
28531743501,-16,-13,-29,-37,4,-1,-4,3,
28531743501,7,-4,17,15,-5,7,17,3,
28531751614,13,2,-2,34,-14,-9,-4,3,
28531751614,-37,-97,-101,-108,-2,-7,-15,-11,
28531758326,36,62,84,77,-14,-2,19,6,
28531758326,-10,18,30,-17,-9,-5,-22,-21,
28531765956,-20,-11,-9,-43,-5,4,-5,-4,
28531765956,12,3,2,-17,-27,0,1,3,
28531781618,-7,-27,-27,-23,5,-10,-9,-1,
28531781618,-1,10,6,-3,-19,-10,2,0,
28531788501,9,37,29,-14,8,11,11,-4,
28531788501,-15,18,10,56,42,-15,-26,-37,
28531803304,18,-3,30,45,37,21,18,38,
28531803304,30,55,24,69,5,-17,-3,10,
28531810782,-32,-66,-31,-46,-23,19,1,9,
28531810782,12,34,-14,-6,-2,8,12,9,
28531827202,-5,-30,-20,-29,-48,-5,2,-9,
28531827202,-23,-4,12,12,30,-8,-18,-24,
28531841219,-28,-33,-1,-13,-3,-30,-27,-28,
28531841219,35,66,40,54,19,11,17,22,
28531855867,10,33,35,41,38,20,9,3,
28531855867,-1,-64,-46,-41,-35,-15,-6,-4,
28531863476,-26,-19,-19,-59,15,13,8,-1,
28531863476,25,-23,-8,84,48,-14,-4,-1,
28531879667,49,35,63,127,58,-6,18,36,
28531879667,-53,-64,-54,-97,-58,-2,-20,-26,
28531893474,14,46,43,41,5,-6,3,-5,
28531893474,-26,-39,-26,-37,-2,-12,-9,-6,
28531908492,45,72,52,31,-28,-8,17,15,
28531908492,-50,-54,-91,12,39,1,-19,-29,
28531916022,24,-4,52,-74,-45,6,4,13,
28531916022,0,24,45,52,26,19,9,-3,
28531932260,2,72,9,47,29,-12,-19,-24,
28531932260,-12,-19,-63,-50,-27,3,-5,0,
28531945800,9,26,46,18,-18,-9,3,7,
28531945800,-17,-61,-22,-2,19,5,0,-9,
28531960800,-15,-87,-118,-63,-37,12,6,4,
28531960800,58,112,127,119,31,5,27,38,
28531975784,-69,-21,13,-2,27,-11,-36,-52,
28531975784,5,-42,-32,-21,7,11,7,10,
28531984675,8,42,-39,-99,8,-1,-9,-10,
28531984675,-10,-79,-67,-49,-24,0,5,10,
28532000436,-24,18,4,28,-11,-1,-2,-5,
28532000436,-5,-8,-25,-8,-8,-12,-16,-13,
28532013352,7,-46,-38,26,2,5,3,5,
28532013352,-20,56,101,51,20,-10,-6,-13,
28532028417,-11,-66,-50,-82,-10,-11,-18,-21,
28532028417,31,14,-63,39,27,23,19,35,
28532037257,1,-11,50,127,54,-14,-3,9,
28532037257,32,21,-23,-67,-71,18,18,23,
28532065853,0,94,100,85,59,-11,-13,-21,
28532065853,-11,-62,-40,-92,-24,2,5,-3,
28532080834,-4,38,38,54,3,-11,-4,-7,
28532080834,30,14,-4,34,-27,3,0,8,
28532088512,-13,-68,-36,-41,12,11,12,14,
28532088512,52,94,89,69,39,16,13,12,
28532095865,-16,8,36,1,-31,-17,-21,-26,
28532095865,-34,6,4,33,8,-16,-10,-12,
28532127240,-10,-16,-8,-103,-42,2,-4,-8,
28532127240,5,-44,-57,-81,40,7,2,7,
28532140880,27,93,82,79,7,-1,-2,-4,
28532140880,-21,-32,-60,-128,-17,5,-6,-9,
28532148216,30,-5,66,96,-1,19,39,33,
28532148216,-26,49,33,62,-4,-27,-30,-42,
28532163268,21,-57,-35,-70,-3,6,0,28,
28532163268,-20,-1,-38,-45,-23,8,3,-11,
28532170847,-25,47,24,22,32,7,7,-16,
28532170847,17,25,48,67,31,-11,-12,-1,
28532193439,27,-24,-39,-80,11,-2,6,5,
28532193439,-9,8,90,-5,-5,18,4,8,
28532200879,-13,-9,-23,-36,-2,11,-8,-4,
28532200879,3,36,87,97,15,-2,6,6,
28532223259,-2,60,68,84,8,-4,-2,-1,
28532223259,-9,-66,-88,-48,-34,-26,-17,-13,
28532230790,28,-16,-55,-17,-6,15,29,26,
28532230790,-13,-18,-23,34,-20,9,-5,-8,
28532238348,-21,-19,-12,0,-9,-1,4,-8,
28532238348,6,14,6,-12,33,-12,-9,-15,
28532253448,24,8,73,77,37,11,13,9,
28532253448,-34,32,20,22,-4,-19,-28,-31,
28532260782,-12,-19,9,36,32,8,0,4,
28532260782,-9,20,25,-61,24,-9,-6,-7,
28532275699,-25,-46,-87,-75,-47,17,4,-11,
28532275699,7,10,46,-20,-20,-18,5,9,
28532298254,-18,-7,-26,-54,-25,2,-3,-1,
28532298254,16,-77,-38,-35,39,20,9,16,
28532313233,19,40,2,10,-1,-14,0,0,
28532313233,-4,30,34,66,16,7,-1,-3,
28532320711,-1,-33,-1,-33,-5,5,1,13,
28532320711,-32,10,-22,-37,10,0,-10,-27,
28532343236,49,29,49,67,47,2,15,47,
28532343236,-30,-19,-36,-57,-40,11,0,-14,
28532358315,-4,-44,-31,28,0,-5,-8,2,
28532358315,16,10,55,-18,11,1,11,24,
28532373336,-6,-7,-34,-30,-3,-13,-24,-28,
28532373336,-25,-5,-48,-80,-43,-4,2,-5,
28532380978,24,-62,-7,127,14,-5,1,8,
28532380978,31,74,59,-4,44,18,19,29,
28532388364,-13,-50,-66,-128,-118,-23,-17,-34,
28532388364,5,-10,-56,71,49,-1,7,19,
28532395923,11,74,127,96,60,-2,-4,-3,
28532395923,-19,-57,-64,-82,-9,-3,-11,-11,
28532410865,20,-52,-51,-70,8,25,20,30,
28532410865,-26,-39,-45,-98,-102,-28,-15,-25,
28532418397,15,45,106,66,59,19,10,5,
28532418397,17,26,-23,-45,-21,-8,2,0,
28532425900,-52,-2,-13,-35,-2,-16,-19,-37,
28532425900,40,-15,-4,81,29,18,11,21,
28532433349,-23,-24,-51,-58,-32,-19,-8,-3,
28532433349,4,-8,-22,58,4,10,3,3,
28532448245,9,-15,-12,12,-46,-11,0,-1,
28532448245,23,34,44,-11,51,9,7,10,
28532455713,-47,-24,-21,-115,-36,0,-11,-31,
28532455713,40,-23,-31,105,73,19,6,19,
28532470672,4,97,83,44,-15,-15,-2,8,
28532470672,-28,-71,-52,54,22,14,-9,-7,
28532478470,43,77,-1,-97,-75,5,29,38,
28532478470,-46,-30,1,32,-21,-17,-31,-43,
28532485940,-34,-63,-34,-20,11,-16,-7,-17,
28532485940,40,70,47,71,41,7,5,4,
28532493322,-40,-12,-16,-18,15,8,-9,-20,
28532493322,20,-60,-15,37,-23,-9,15,41,
28532515758,10,13,33,70,-12,6,9,7,
28532515758,-19,62,49,-11,-12,-11,-10,-17,
28532523234,-2,14,-20,-58,13,-5,-13,-33,
28532523234,19,-14,5,-7,19,1,-1,4,
28532538313,-18,19,92,47,36,9,3,4,
28532538313,32,-3,15,26,0,10,12,14,
28532545795,-34,-55,-81,12,13,-6,-21,-13,
28532545795,-6,-43,-50,-62,-28,-4,5,6,
28532554662,45,89,78,-63,-20,17,22,29,
28532554662,-81,-23,4,-101,-80,-28,-41,-91,
28532561005,62,3,40,124,28,-9,14,27,
28532561005,-23,-44,-69,-60,34,14,-6,5,
28532568397,1,-48,-24,18,37,0,-4,15,
28532568397,29,10,-32,34,-31,7,13,29,
28532575885,-12,39,73,1,-32,-1,9,-1,
28532575885,-13,-19,-11,-69,-37,-11,-10,-24,
28532590778,5,14,-68,49,42,9,-5,-8,
28532590778,-6,-36,-33,-26,-41,-13,5,13,
28532598476,16,5,3,-70,0,11,7,11,
28532598476,-33,-7,-6,-59,-45,-31,-25,-38,
28532613189,17,69,59,83,40,9,4,-4,
28532613189,10,34,-45,-42,6,-7,-5,8,
28532628456,5,-61,-88,-125,-47,6,-6,-6,
28532628456,17,45,96,93,24,0,19,17,
28532635821,-21,-37,-83,70,29,-9,-15,-12,
28532635821,7,36,58,-59,-38,6,-2,-8,
28532650875,-14,1,16,99,43,-13,0,-3,
28532650875,-25,-91,-118,-109,-37,9,-7,-6,
28532658346,42,65,127,114,79,7,14,33,
28532658346,-6,21,-7,58,16,-2,-5,-9,
28532680899,-27,-61,-65,-120,-48,-1,-7,-8,
28532680899,6,24,10,-67,-32,-10,-4,-9,
28532695778,-6,66,39,15,-22,-13,-10,-10,
28532695778,-18,-70,0,10,30,-2,-3,4,
28532703435,-39,11,-48,-128,-90,-21,-16,-42,
28532703435,49,69,127,127,127,15,19,36,
28532718323,-66,-107,-96,-108,-30,-11,-29,-43,
28532718323,38,54,68,101,24,22,23,33,
28532740747,12,-5,108,42,16,13,12,19,
28532740747,-51,-45,-30,103,18,3,-14,-29,
28532755763,30,21,-21,-45,-2,-18,-13,-13,
28532755763,-4,-45,-72,-76,8,13,3,17,
28532763298,17,52,21,-23,4,24,15,15,
28532763298,-28,0,-8,-56,-57,-30,-24,-32,
28532778453,7,20,17,72,32,2,1,1,
28532778453,10,-16,8,6,-31,-4,12,9,
28532793386,-18,-12,49,83,85,3,-13,-21,
28532793386,11,3,-74,-98,-56,-11,8,10,
28532800721,17,60,19,-111,-8,20,12,13,
28532800721,-19,-5,-16,-38,8,-4,-12,-14,
28532823240,5,-15,103,111,43,-6,-1,7,
28532823240,24,4,-40,-110,-76,-3,6,8,
28532830763,-12,18,-4,53,-1,-1,-2,2,
28532830763,-20,-57,-43,-27,-18,-6,-14,-15,
28532845920,-16,-20,-17,21,1,-9,-2,-6,
28532845920,-4,43,34,20,72,10,-5,-12,
28532862209,-9,-69,-90,-75,-1,20,7,21,
28532862209,7,18,73,69,7,-30,-14,-13,
28532868430,-17,-50,-85,-59,-14,6,1,0,
28532868430,-4,14,-25,-35,-2,8,2,-8,
28532875902,43,89,66,52,41,-5,-1,9,
28532875902,-22,-38,-19,-37,-1,-7,-12,-5,
28532890697,-9,12,20,30,29,15,3,-11,
28532890697,3,1,0,-45,-32,-2,2,8,
28532898374,-14,-50,-113,-107,-49,-2,3,4,
28532898374,24,113,125,101,58,10,8,-8,
28532913310,2,-44,-80,-54,-24,11,3,-3,
28532913310,4,61,115,121,60,9,6,7,
28532928331,-46,14,-46,-11,7,-23,-21,-29,
28532928331,38,21,28,52,15,-1,2,8,
28532943380,-38,21,1,-82,-43,0,3,-14,
28532943380,3,-37,-31,-84,-13,-4,-14,-15,
28532958306,8,-10,60,-4,8,-2,5,17,
28532958306,0,19,2,26,59,8,-6,-4,
28532965767,-17,-22,3,17,-14,-5,-6,-5,
28532965767,-20,46,51,25,-19,-7,0,-20,
28532980954,14,26,-29,-47,-40,-25,-7,-11,
28532980954,-21,-69,-99,-97,7,14,6,8,
28532988288,22,8,75,52,5,13,16,37,
28532988288,-8,-9,-48,-26,-22,-21,-12,-10,
28532995807,-9,-75,-44,18,33,-4,-6,-4,
28532995807,-6,92,86,-35,-73,8,14,1,
28533010898,3,5,37,79,22,-27,-24,-37,
28533010898,13,5,2,-61,-27,1,6,14,
28533018473,-7,-36,16,29,6,20,11,4,
28533018473,2,20,21,113,27,-16,-13,8,
28533033259,33,49,70,0,23,23,24,33,
28533033259,-33,33,12,-54,-20,-20,-20,-36,
28533048431,-20,-57,-90,-21,-25,-7,-10,-16,
28533048431,15,23,47,30,-2,-7,-6,0,
28533055703,17,47,38,-25,2,-9,-3,-2,
28533055703,-49,-82,-92,70,15,-4,-7,-8,
28533070807,21,47,54,-54,-7,0,3,2,
28533070807,-3,-45,-55,45,20,11,5,8,
28533078423,14,43,30,-105,-28,-12,-7,-3,
28533078423,9,-19,53,80,20,13,7,11,
28533093391,-35,-23,-94,-76,-32,-19,-11,-18,
28533093391,6,79,111,59,18,4,11,-5,
28533100810,5,31,-47,-27,-21,-26,-23,-32,
28533100810,-12,-69,-39,38,25,20,1,12,
28533108389,4,-25,-40,-58,-30,5,8,14,
28533108389,26,25,84,34,12,1,4,15,
28533115675,-28,-23,-71,-72,-43,-24,-6,-3,
28533115675,-2,-4,-5,-43,1,6,-2,-8,
28533130898,1,49,-32,98,40,-10,-9,-18,
28533130898,42,23,56,10,-40,16,23,31,
28533138283,-36,-62,0,90,31,-6,-18,-26,
28533138283,48,59,12,-108,-60,10,15,27,
28533153258,-3,-15,2,75,41,-3,-4,2,
28533153258,-46,-89,-128,-97,-31,2,-11,-13,
28533160902,41,-12,17,100,0,-3,19,29,
28533160902,-36,2,-71,-65,-48,-24,-20,-36,
28533168229,43,94,124,127,50,19,24,26,
28533168229,-29,26,34,42,-5,-32,-32,-45,
28533175770,-10,-33,-95,-84,14,17,5,8,
28533175770,2,-19,-29,-106,8,9,0,1,
28533190897,44,-48,-39,-4,-22,-2,10,26,
28533190897,-23,-92,-65,14,23,2,-2,7,
28533198334,-15,62,50,-83,-22,9,0,-7,
28533198334,10,33,59,127,37,-18,-12,-20,
28533213433,48,0,17,-70,-20,-1,8,20,
28533213433,-54,93,87,8,-20,19,2,-13,
28533220671,7,-123,-99,13,-5,-14,-17,-9,
28533220671,49,68,65,11,50,23,24,44,
28533228495,-50,-60,-68,-11,14,4,-13,-13,
28533228495,8,5,-69,15,-19,-8,-4,-7,
28533243397,15,81,123,-65,-12,14,17,10,
28533243397,-40,-16,-30,-14,-5,-11,-15,-32,
28533258303,-52,-56,-61,31,28,-21,-17,-18,
28533258303,60,78,79,20,16,7,20,31,
28533265753,-39,-33,-72,-34,13,-13,-28,-36,
28533265753,16,-54,-1,71,-17,3,4,11,
28533280748,12,44,-54,-100,-63,7,12,12,
28533280748,-22,-81,-25,-11,-1,7,3,-10,
28533288208,12,11,-13,-17,-18,-8,3,5,
28533288208,2,16,38,-27,-3,-1,1,-2,
28533295761,-9,8,-27,48,5,-17,-20,-22,
28533295761,-1,-12,-3,76,-7,-6,-1,4,
28533303433,27,11,13,42,20,7,9,16,
28533303433,7,-24,-7,-76,1,3,3,10,
28533310875,-21,-19,18,52,-6,18,-2,-4,
28533310875,-6,-24,-13,-52,-7,-16,-13,-15,
28533318294,-25,64,92,126,-6,-1,0,-10,
28533318294,-18,17,-21,81,3,-21,-14,-24,
28533333416,-14,44,67,-18,18,-7,-1,-4,
28533333416,-4,-94,-93,-1,15,-21,-12,-11,
28533340738,3,-39,-105,-38,-43,9,17,29,
28533340738,23,95,96,-37,44,11,-4,-8,
28533348370,-16,-23,53,74,18,-15,-12,-7,
28533348370,-5,-23,-88,-34,-30,8,5,6,
28533355821,3,-8,62,84,63,-7,-1,4,
28533355821,-8,16,22,49,-15,3,3,5,
28533370723,27,8,-43,-68,-58,11,4,-5,
28533370723,-34,-73,-5,65,40,-5,-4,-8,
28533378221,27,24,-27,-29,-31,-19,0,10,
28533378221,-26,-15,-15,-38,0,-15,-7,-4,
28533393425,-41,-11,71,39,28,9,-14,-23,
28533393425,14,-13,-73,-75,-55,-8,11,5,
28533400741,32,55,127,72,2,24,7,0,
28533400741,-25,-55,-61,3,12,-18,-23,-12,
28533408390,27,54,1,31,3,5,11,11,
28533408390,13,-28,-71,-72,-2,2,-1,14,
28533415797,-37,32,45,-13,0,-19,-16,-28,
28533415797,33,-59,-95,23,-9,9,10,18,
28533430787,-9,-52,42,2,-8,7,5,18,
28533430787,-1,67,26,-53,6,7,4,-9,
28533438217,2,-35,-41,8,-9,-24,-11,2,
28533438217,10,-34,-42,-80,-40,20,19,19,
28533453427,-27,78,17,50,8,-19,-21,-47,
28533453427,8,11,16,-6,22,23,0,9,
28533460949,24,-9,11,56,65,20,21,48,
28533460949,-63,-12,36,25,15,-15,-20,-38,
28533468464,25,-27,-55,-26,2,9,4,8,
28533468464,19,86,106,-121,-46,-29,-11,-13,
28533475899,-23,-63,-80,15,-7,-8,-14,-26,
28533475899,0,25,45,16,15,-1,13,25,
28533492193,12,-7,-58,9,-7,-10,-6,-15,
28533492193,20,2,49,37,47,16,3,13,
28533498363,-15,-11,-36,-86,-15,12,0,-13,
28533498363,57,-30,41,120,-3,7,12,27,
28533513225,-33,108,59,-91,-40,-11,-2,-25,
28533513225,-20,-12,-9,116,36,-25,-16,-19,
28533520702,-22,-85,-53,-16,11,13,1,10,
28533520702,32,-34,-94,-128,-15,3,-7,-5,
28533528257,2,-34,35,124,40,2,7,19,
28533528257,38,99,82,44,28,20,7,3,
28533535894,5,9,3,43,-39,-32,-8,-19,
28533535894,-58,-71,-52,-84,-6,4,-13,-17,
28533550966,-2,-63,-79,-86,-30,13,5,18,
28533550966,8,46,40,65,21,-6,10,11,
28533558373,22,42,33,-20,8,6,-3,0,
28533558373,4,14,-50,-75,-29,-2,5,-1,
28533573237,25,55,86,48,25,0,6,17,
28533573237,-8,-128,-128,-123,-39,3,-6,2,
28533580778,11,68,77,66,-3,14,17,15,
28533580778,-6,-12,53,55,2,-6,-1,-2,
28533588231,-39,-17,-51,-106,-1,-7,-10,-16,
28533588231,6,27,-25,70,-8,-19,-12,-7,
28533595924,-10,-28,-27,12,6,1,-6,-8,
28533595924,-21,68,29,-6,-33,-15,-11,-24,
28533610914,12,-30,4,-24,23,8,14,7,
28533610914,-8,-32,-45,15,11,6,2,9,
28533618231,-9,-32,-59,-102,-43,-13,-15,-10,
28533618231,-57,5,49,89,26,24,10,-1,
28533633275,25,102,79,104,-16,-45,-20,-35,
28533633275,-10,-108,-74,-115,-32,18,6,28,
28533640773,-5,73,58,60,44,6,7,8,
28533640773,20,18,14,78,39,21,6,6,
28533648353,-15,-49,-16,-3,-3,-2,-1,3,
28533648353,1,-17,30,6,-4,-1,3,4,
28533655791,-18,-49,-41,-115,-51,3,0,-6,
28533655791,7,-8,14,17,4,-13,-1,-2,
28533670728,25,44,-26,56,3,-16,-8,-8,
28533670728,-21,-32,-49,-57,2,-6,-4,0,
28533678185,-21,19,5,71,23,2,-6,-3,
28533678185,40,12,-16,-50,-29,11,27,33,
28533708256,-14,-115,-26,-2,4,30,6,22,
28533708256,-9,48,36,29,2,-16,-15,-26,
28533715774,-4,-17,-76,-91,-44,5,3,-7,
28533715774,1,49,77,37,-7,-6,-1,-14,
28533723253,-10,42,-3,-16,-2,-16,-8,-12,
28533723253,22,20,45,26,0,-11,5,4,
28533730759,8,11,-26,-7,17,3,-1,14,
28533730759,4,0,-17,10,-4,-13,-16,-18,
28533745970,12,-29,-24,-31,-6,11,9,11,
28533745970,-4,-10,-20,30,9,1,-5,3,
28533760787,-27,-34,4,5,8,4,-3,-7,
28533760787,-10,42,90,9,-10,-16,-6,-18,
28533768422,15,-45,-31,-107,-40,19,7,15,
28533768422,-7,-16,-19,17,-2,5,-4,-2,
28533783351,-12,-47,34,62,26,6,4,9,
28533783351,12,50,57,35,15,-22,-17,-25,
28533798404,7,-3,12,-16,14,9,8,14,
28533798404,-41,-54,-53,-41,10,1,-8,-16,
28533805759,72,96,66,5,-11,-26,-1,-2,
28533805759,-35,-96,-126,-85,-11,0,-5,5,
28533820793,12,28,58,27,-15,14,4,10,
28533820793,7,84,87,118,43,21,7,2,
28533828206,0,-61,-44,-32,30,8,-6,-2,
28533828206,18,11,-7,35,0,8,7,3,
28533835896,-16,44,18,-103,-54,2,2,-9,
28533835896,-31,-79,-101,-11,26,-18,-19,-34,
28533843384,43,19,-1,43,-28,-22,2,14,
28533843384,-13,-30,24,11,35,8,4,14,
28533850965,5,37,71,96,-41,-31,-9,-7,
28533850965,-10,21,17,-3,8,26,17,7,
28533858374,35,-12,-28,-74,-54,21,18,26,
28533858374,-76,-68,-51,16,9,-10,-18,-33,
28533873237,-11,-50,-67,-44,-2,-10,-13,-8,
28533873237,56,114,97,63,-5,-6,17,22,
28533880901,-39,14,14,5,-1,-11,-23,-36,
28533880901,19,-61,-62,-32,-20,2,8,19,
28533888286,19,54,52,-29,27,13,8,12,
28533888286,-10,-59,-58,-5,-17,-11,-9,-2,
28533895936,-2,-78,-2,-101,-1,35,23,34,
28533895936,24,127,81,127,11,-29,-10,-27,
28533912168,-31,-128,-109,-5,-1,-7,-13,-11,
28533912168,-26,74,93,-17,-10,2,-7,-19,
28533918422,-7,-22,-85,-17,26,-9,-11,-18,
28533918422,10,-29,42,-32,18,28,20,34,
28533940952,11,39,29,-45,-37,-24,-6,-2,
28533940952,-27,-65,-63,-78,-33,-2,-6,-1,
28533948267,-22,1,52,104,34,3,9,6,
28533948267,18,14,-10,-74,-54,7,4,-15,
28533955878,7,-17,36,108,60,2,1,0,
28533955878,-19,99,26,58,6,-11,-22,-37,
28533970706,16,-34,-43,33,35,17,2,9,
28533970706,3,37,29,-75,-54,-5,8,16,
28533985795,-27,-28,-36,53,26,6,-1,-20,
28533985795,8,-89,-49,-54,-25,-1,11,18,
28534000766,-19,-4,56,86,-24,-3,2,7,
28534000766,5,-15,-53,-40,1,-18,-15,-6,
28534008167,-17,-8,3,82,15,6,-1,2,
28534008167,7,50,-33,-95,-67,-29,-22,-32,
28534015868,14,15,15,-65,-45,3,6,-4,
28534015868,2,-23,13,78,46,8,3,16,
28534030796,-16,-41,-29,-61,3,6,-2,0,
28534030796,46,28,58,127,38,17,15,31,
28534038165,8,78,-28,-40,5,-12,-4,-13,
28534038165,-16,-39,-11,-6,7,-4,-4,-5,
28534060797,-20,-27,-68,-2,29,-11,-6,-7,
28534060797,33,-43,23,-24,-9,17,19,23,
28534068403,-11,-17,-3,50,23,14,-2,2,
28534068403,1,-1,-21,-74,-39,-8,3,-2,
28534075940,-32,75,81,109,43,-1,-5,-17,
28534075940,15,-11,-25,-19,-24,-22,-17,-18,
28534090736,2,-13,-1,-60,-6,4,2,2,
28534090736,43,34,37,34,15,4,8,24,
28534098239,-17,-49,-68,-34,-41,-7,-15,-12,
28534098239,-19,28,60,70,10,3,3,-3,
28534105788,3,23,19,20,-11,-24,-9,-14,
28534105788,3,34,56,36,35,2,1,-6,
28534113195,35,-3,38,39,11,7,21,36,
28534113195,-22,-70,-22,-25,-12,-17,-14,-5,
28534120794,32,43,17,-66,-11,-6,1,6,
28534120794,-59,27,11,52,23,-9,-23,-54,
28534135784,25,16,-1,20,12,17,17,18,
28534135784,6,8,47,-43,-17,11,16,18,
28534143465,10,48,-61,-50,5,-9,-15,-21,
28534143465,-4,23,76,25,-18,-17,-10,-5,
28534150806,37,9,17,-55,1,-4,4,16,
28534150806,-10,-60,-78,33,-12,-15,-13,-17,
28534158455,-14,-68,-60,41,10,1,8,25,
28534158455,-44,-21,-10,72,25,-13,-14,-12,
28534180788,42,64,15,-79,-78,24,25,19,
28534180788,-25,-18,-33,47,-6,2,-12,-25,
28534188194,-14,-12,-13,-63,-18,-4,1,1,
28534188194,10,-39,-84,-31,12,-8,-11,-10,
28534203250,-41,31,9,32,23,-21,-13,-25,
28534203250,13,1,5,86,49,8,7,5,
28534210884,-4,8,61,57,3,7,11,15,
28534210884,-35,-59,-44,-65,5,4,-9,-17,
28534219653,33,82,23,33,-8,-6,-5,-2,
28534219653,-27,-82,-84,-44,-17,0,5,8,
28534225988,38,-6,-23,-3,-8,12,9,23,
28534225988,29,62,58,5,29,27,18,19,
28534233211,-55,-66,-2,-18,5,-6,-17,-23,
28534233211,28,16,-52,-35,-17,-18,-7,8,
28534240715,0,45,95,13,-12,-5,4,-4,
28534240715,-30,-45,-35,-90,-8,-8,-11,-21,
28534255756,8,72,50,72,-3,3,-1,-3,
28534255756,-4,-2,52,63,17,-6,7,13,
28534263363,-14,-70,-29,-44,23,-1,-9,-8,
28534263363,32,26,-24,-32,2,13,5,19,
28534270768,-7,-36,49,89,5,-6,2,4,
28534270768,-23,58,38,-3,-8,-26,-24,-42,
28534278421,6,-25,-66,-66,-22,9,8,15,
28534278421,-14,-2,33,28,2,7,5,1,
28534293419,-27,-60,-92,-70,-51,-5,-11,-35,
28534293419,45,23,52,24,55,12,22,44,
28534300936,-25,20,29,-10,-22,-8,-13,-13,
28534300936,7,69,-29,67,25,11,6,-4,
28534315760,-8,-93,-71,1,7,0,0,29,
28534315760,-9,-14,5,-40,-29,31,9,3,
28534323223,-1,-43,-53,-28,-23,-15,-2,-11,
28534323223,41,84,120,69,14,-20,-5,3,
28534338163,-5,2,-17,-6,16,3,-7,-10,
28534338163,-31,-13,61,-18,22,4,-9,-17,
28534345756,18,22,-51,16,-20,-29,-2,0,
28534345756,1,3,50,82,23,3,3,7,
28534360779,4,25,14,-12,-2,-16,-8,-3,
28534360779,-41,-95,-41,-128,-71,6,-4,-18,
28534368127,41,106,93,85,73,16,7,9,
28534368127,-10,-61,-46,-77,-22,-9,-1,-3,
28534383154,-8,-32,1,39,6,-7,-6,-4,
28534383154,4,-28,-68,41,27,-1,-2,1,
28534390928,1,-43,-35,-74,-45,5,5,19,
28534390928,35,108,77,94,45,7,16,17,
28534398344,2,-28,-40,79,43,11,4,11,
28534398344,-13,-9,-50,-128,-59,0,-3,-7,
28534413252,-6,25,59,41,29,6,2,-11,
28534413252,3,-24,-45,-118,-51,-4,2,-1,
28534420704,13,-11,31,76,-6,1,8,10,
28534420704,-24,-29,-67,8,-3,4,3,7,
28534435957,9,38,29,-8,46,26,12,2,
28534435957,32,49,30,80,25,-36,-14,3,
28534443420,-32,-37,-24,-92,-29,13,-1,-2,
28534443420,25,-48,-18,-50,-11,-12,-2,6,
28534458385,1,-57,-66,-21,-43,2,7,10,
28534458385,12,106,80,85,69,21,8,-3,
28534465984,-33,-46,-66,-57,-46,-39,-36,-37,
28534465984,14,31,76,50,25,14,12,28,
28534480800,-13,-20,-69,-128,-57,-20,-23,-14,
28534480800,-9,-109,-84,-17,5,25,11,10,
28534488225,14,71,49,111,-7,4,11,3,
28534488225,-48,-61,-67,-79,-78,-37,-29,-42,
28534503382,42,79,82,121,82,-11,14,29,
28534503382,-9,0,-13,-83,-46,2,-3,-4,
28534511060,-37,-101,-126,-56,-19,-8,-37,-54,
28534511060,54,37,67,101,-9,-2,22,44,
28534518378,-11,-78,-111,-128,-3,1,-13,-5,
28534518378,16,15,70,77,41,14,11,26,
