timestamp,C1,C2,C3,C4,C5,C6,C7,C8,
107713593074,34,39,-84,13,68,25,10,7,
107713593074,-34,16,55,-49,-76,-33,-4,-3,
107713618508,20,-45,32,35,11,29,-9,-2,
107713618508,-7,33,100,38,23,24,-4,-5,
107713622317,-40,5,-63,-7,0,-15,-11,-13,
107713622317,18,-9,69,26,38,34,25,17,
107713628668,-1,53,-5,-42,-84,-22,0,7,
107713628668,0,-21,14,14,40,-13,7,-1,
107713660699,-5,-14,-2,-34,-16,-7,-28,2,
107713660699,2,-15,-87,23,1,-1,13,-12,
107713666158,-30,-50,-62,-15,0,-6,-28,-24,
107713666158,-5,-5,-32,5,-8,-16,4,11,
107713673735,-9,21,36,-16,-14,22,23,10,
107713673735,-3,-26,-81,-30,-47,-25,5,-10,
107713682580,-22,11,80,18,12,-15,-3,-15,
107713682580,0,7,43,-3,-4,5,-14,0,
107713703938,-7,47,-68,18,34,-6,22,0,
107713703938,7,10,-71,-26,-76,11,16,12,
107713711173,-11,-46,29,-5,67,1,1,-16,
107713711173,15,34,-61,29,-52,-10,10,11,
107713733703,-8,-28,-40,32,-75,-86,-16,0,
107713733703,7,-2,72,-74,12,7,-25,-14,
107713741568,21,-29,-55,51,-50,-30,1,-7,
107713741568,13,29,42,-43,86,21,-20,11,
107713748712,0,7,-54,47,2,23,19,29,
107713748712,1,31,127,30,41,-1,7,-9,
107713757613,-17,10,115,38,-45,16,7,-2,
107713757613,-17,-10,-70,-46,-31,24,4,0,
107713763833,-3,-16,90,3,-2,-13,-8,-4,
107713763833,-20,0,-87,13,13,3,-22,-20,
107713773282,21,-28,-37,-44,-54,-10,24,-1,
107713773282,-32,-25,-103,-28,38,15,3,-9,
107713778745,1,30,109,47,-34,0,10,5,
107713778745,16,6,-16,1,-18,-12,-7,0,
107713793738,-2,29,-37,-26,102,37,18,-1,
107713793738,-36,-40,19,-13,-39,-13,-8,0,
107713810097,9,12,-98,1,15,26,-12,2,
107713810097,37,28,72,28,-10,-17,21,2,
107713816302,-10,13,-13,-26,9,-7,-16,4,
107713816302,-19,-21,5,48,-5,-5,-12,-7,
107713831221,2,-1,40,-45,-8,41,36,10,
107713831221,21,-9,-66,-36,11,-26,-34,-4,
107713846258,-21,-4,-68,17,12,-13,-13,-12,
107713846258,6,-10,-38,22,67,29,23,17,
107713861164,-40,-27,-27,20,-82,-43,-42,-26,
107713861164,17,22,49,-12,99,4,13,6,
107713870040,27,-5,31,-5,-49,17,14,21,
107713870040,-30,16,-24,-24,-23,-4,1,-27,
107713898662,15,2,25,-1,-4,5,0,6,
107713898662,3,-29,-96,-10,-20,-7,0,0,
107713906128,-8,17,106,38,7,-19,-18,-10,
107713906128,22,6,-72,3,-10,5,3,16,
107713913748,-32,-3,-12,-10,-15,-8,8,-14,
107713913748,-11,-13,-44,-29,6,10,9,3,
107713928786,10,-39,24,23,53,31,35,-3,
107713928786,-13,17,47,40,-79,-43,-24,-7,
107713936568,8,9,93,-35,11,-23,10,8,
107713936568,21,6,-39,1,46,38,20,-2,
107713945099,-15,-28,-116,27,-61,-25,-9,-8,
107713945099,-15,9,127,-14,13,-18,-6,4,
107713958765,-5,-46,-99,27,84,6,16,9,
107713958765,37,42,-14,17,-74,3,-7,-6,
107713966158,-28,9,-9,-31,31,8,2,2,
107713966158,8,4,29,13,-5,-13,-6,-3,
107713973708,4,-48,-102,9,-92,-11,-43,-15,
107713973708,-19,3,-22,-22,6,-19,2,-14,
107713996274,2,4,58,61,-40,4,-30,-7,
107713996274,7,16,38,-43,105,21,39,23,
107714018694,17,68,111,56,-1,-5,-11,10,
107714018694,13,3,-48,-64,-49,2,7,9,
107714033614,-27,-65,-99,-12,-30,-8,-3,-2,
107714033614,-12,-19,67,0,-5,-10,-24,-11,
107714048641,1,29,44,26,2,-6,4,2,
107714048641,8,50,78,24,27,18,9,11,
107714063645,0,-23,-78,-83,-2,1,-24,-8,
107714063645,-44,-19,-4,52,-16,-30,3,-18,
107714071104,5,46,108,30,64,26,0,2,
107714071104,15,16,-108,54,-12,15,6,21,
107714086127,-5,-25,-62,-38,-69,-17,24,0,
107714086127,7,-24,-76,-26,-9,-16,5,6,
107714093633,-6,33,47,3,-20,-15,-46,-7,
107714093633,25,-16,53,32,96,7,-7,8,
107714108599,-5,-22,-128,-42,-37,-14,-5,-6,
107714108599,32,22,53,50,16,32,20,26,
107714116120,0,6,-40,-53,-32,-11,-9,-8,
107714116120,7,30,110,85,36,23,30,6,
107714131163,32,-5,-34,20,16,14,11,14,
107714131163,-5,32,73,-17,-5,-15,-7,-5,
107714146160,-33,-11,21,28,-1,-17,-21,-9,
107714146160,9,21,-2,-19,-35,-1,6,5,
107714168610,-22,-31,-16,18,-12,-6,-6,-19,
107714168610,-4,23,0,-33,59,-3,-8,-5,
107714183629,7,14,123,72,25,35,6,10,
107714183629,4,-28,-69,-8,-17,17,0,2,
107714191086,14,2,55,4,38,-11,-3,-1,
107714191086,22,39,24,-25,-66,-3,6,9,
107714206155,34,11,-85,77,22,6,0,7,
107714206155,-19,-10,-12,-47,15,30,11,-2,
107714236144,23,-5,-71,-26,79,26,14,15,
107714236144,23,-31,-30,5,-4,-43,-14,-5,
107714243618,8,38,9,-43,-35,-5,-17,-2,
107714243618,-61,-86,-58,-9,-27,4,-2,-29,
107714258616,36,15,63,24,55,12,4,31,
107714258616,4,28,9,-105,-25,-6,-11,-1,
107714281084,3,-43,-89,90,24,21,-12,-24,
107714281084,-4,-12,77,-10,-18,-35,-1,-5,
107714288625,-20,19,25,-12,41,17,17,-6,
107714288625,15,-35,-105,-15,-14,-10,3,15,
107714311131,-5,-11,98,-75,-14,-13,-18,-1,
107714311131,-7,24,-82,77,4,45,-11,2,
107714318705,2,26,65,14,-18,-21,-5,0,
107714318705,-19,-57,-128,-64,24,23,14,-6,
107714348638,-30,-40,28,-30,-16,16,19,-1,
107714348638,10,47,84,-5,-9,-1,-18,-5,
107714363598,-41,-17,-99,-7,76,6,-1,-16,
107714363598,25,-26,41,17,22,-22,-3,14,
107714378597,-17,-61,-86,10,-10,13,10,5,
107714378597,-7,38,110,-8,-53,-65,-14,-12,
107714401118,17,-23,-8,26,-56,-5,8,-1,
107714401118,2,28,-39,-11,24,25,14,4,
107714423641,21,-11,-120,0,-20,17,11,13,
107714423641,-36,-6,17,12,-1,-18,-5,-6,
107714438659,12,17,13,-4,-20,31,4,2,
107714438659,-30,-30,-30,-15,43,-19,9,-4,
107714453648,17,35,42,51,27,21,-9,8,
107714453648,25,-29,-126,-16,-28,-28,6,6,
107714476156,21,36,115,38,35,-29,2,8,
107714476156,16,2,-44,-11,88,49,20,-1,
107714483650,-34,-33,-18,-43,-7,19,-4,-6,
107714483650,17,-33,61,-18,-52,-9,-9,1,
107714513675,1,5,-67,-72,-8,15,0,13,
107714513675,-5,-21,-59,40,19,-1,-19,-25,
107714528657,-19,-40,-74,41,80,8,14,-7,
107714528657,35,73,104,73,-26,31,-1,18,
107714551123,0,53,50,-19,4,-7,17,6,
107714551123,-34,-44,-75,24,6,0,-7,-15,
107714558622,21,2,72,-11,-91,-13,8,12,
107714558622,-39,-2,-10,-26,23,-15,-11,-10,
107714588647,4,-1,-58,40,8,-23,-13,6,
107714588647,11,8,-61,-50,-87,45,18,24,
107714618836,-35,-29,64,-2,96,-22,-3,-19,
107714618836,-3,21,-17,30,-6,21,10,1,
107714641438,-1,35,33,-28,-64,-10,12,2,
107714641438,-25,-53,-1,-76,61,7,-32,-11,
107714663635,0,-15,-128,-17,-20,8,6,-7,
107714663635,-16,-3,127,52,58,-1,6,-16,
107714678645,10,3,79,-29,15,-1,4,-1,
107714678645,24,33,27,6,-18,-9,-14,3,
107714686247,25,-37,-121,17,28,30,19,12,
107714686247,-24,31,62,-2,35,2,-4,-7,
107714701159,-76,-36,-107,-59,2,-2,-20,-55,
107714701159,22,-21,-2,-47,-15,-19,1,15,
107714708639,-34,32,25,37,12,33,11,-6,
107714708639,14,-39,-2,-68,-67,-29,-6,-2,
107714716366,19,40,127,40,29,-18,2,10,
107714716366,-12,-2,-62,7,-19,-6,6,-2,
107714731370,-3,20,6,-16,-14,3,-17,-1,
107714731370,-47,-19,-112,50,15,-10,11,-9,
107714761262,5,28,9,-30,4,-12,14,6,
107714761262,-28,-56,-5,7,-8,0,-6,-18,
107714768703,38,47,78,-25,46,3,-18,24,
107714768703,2,-41,-53,-3,-11,-9,1,-1,
107714791202,22,11,12,54,-32,18,13,18,
107714791202,-16,4,-110,-38,-26,12,-31,-21,
107714798882,-12,-20,105,-52,93,-18,8,-7,
107714798882,-7,-10,-100,37,41,81,68,2,
107714828761,-34,-57,-128,24,-18,7,-11,-13,
107714828761,22,14,88,14,4,-27,1,12,
107714851368,8,15,8,-10,10,-5,-12,2,
107714851368,-22,1,-27,-72,-29,-17,-2,-13,
107714873888,4,21,48,-63,-21,-22,12,7,
107714873888,-6,-26,-10,15,-70,-27,-29,-18,
107714896191,-1,25,7,22,65,-4,-6,-3,
107714896191,3,-22,-53,0,48,16,-10,-9,
107714911076,4,-19,15,-28,-33,49,20,19,
107714911076,-41,-13,-61,33,-51,-61,-51,-25,
107714918631,12,7,97,-2,67,39,27,-2,
107714918631,0,5,-35,-4,-42,-22,4,-1,
107714926152,-7,-1,-15,-65,-37,-25,4,-4,
107714926152,1,-14,54,26,53,17,-12,-6,
107714941254,-9,-15,-107,-82,-106,16,20,-11,
107714941254,-6,-38,-72,6,71,-13,-26,-12,
107714948707,-12,-21,-26,16,14,9,-3,-3,
107714948707,17,-4,-100,35,-63,38,9,2,
107714956339,29,44,87,31,100,-3,3,22,
107714956339,1,45,24,7,-77,4,-1,-2,
107714978665,-10,-8,3,-43,105,56,12,-5,
107714978665,-12,-42,-75,-18,-30,5,5,-7,
107714986375,-7,-38,20,2,-82,-76,-2,0,
107714986375,13,-6,-110,-23,-38,5,12,7,
107715001107,37,63,106,28,-43,12,-13,-1,
107715001107,15,25,-12,2,116,0,4,14,
107715016388,29,-20,-79,30,-20,24,-7,7,
107715016388,-41,11,32,-20,50,-7,10,1,
107715031157,-17,-9,-128,-69,-55,-21,-4,-18,
107715031157,-10,-33,101,15,31,7,-5,6,
107715038894,-21,11,-2,26,103,-2,-18,-6,
107715038894,6,-8,54,-25,-7,28,-5,-4,
107715068691,-3,-22,-55,49,-53,40,4,8,
107715068691,3,9,96,-26,-32,-20,2,-10,
107715083754,-23,-2,-55,3,-23,-2,6,-11,
107715083754,15,-21,-33,-37,-55,-43,5,8,
107715091351,-10,-26,12,22,49,-32,-29,-13,
107715091351,24,36,38,23,21,15,16,11,
107715113622,-6,8,111,56,66,20,-2,-7,
107715113622,22,-4,-101,-13,-32,3,-3,11,
107715128615,14,-1,45,-15,-10,50,14,5,
107715128615,-6,10,-29,-11,-30,-31,-11,1,
107715143644,-23,24,8,18,-33,-2,-1,-7,
107715143644,4,-20,-26,-17,-91,16,-2,0,
107715151352,12,15,-20,-12,35,-3,4,8,
107715151352,4,13,36,25,11,-3,-19,2,
107715158941,-8,9,-31,7,-6,16,-7,1,
107715158941,8,-9,32,-37,-66,-24,5,-16,
107715173965,-5,-15,35,33,58,-41,-22,-7,
107715173965,-19,18,11,-20,-20,13,-5,-13,
107715181329,73,2,0,24,-37,-35,27,26,
107715181329,-20,-34,-43,4,127,-3,-6,-3,
107715196396,-23,3,-36,-74,-50,-15,20,1,
107715196396,53,-36,-94,-9,-33,-3,14,18,
107715211174,-51,-28,-37,-39,-29,-29,-22,-29,
107715211174,19,19,86,38,32,27,-6,13,
107715218750,5,20,-17,-18,17,19,-6,1,
107715218750,-14,-26,4,-27,-36,-12,18,4,
107715256176,9,-23,-55,31,-63,1,-4,-3,
107715256176,-4,23,-2,-38,-64,-21,-8,6,
107715278684,-25,-38,-34,-52,78,18,11,-8,
107715278684,12,33,31,53,-33,-35,-59,4,
107715286134,-22,-10,-16,52,-59,8,35,-7,
107715286134,36,26,-46,-51,-17,11,25,13,
107715293615,22,-23,11,-24,107,19,-10,10,
107715293615,-42,0,-27,-19,-55,-35,3,-13,
107715316094,-23,3,39,25,-11,-25,-4,-6,
107715316094,40,0,-63,-44,-42,-6,1,8,
107715323944,39,-33,-61,64,4,14,-14,2,
107715323944,-49,42,115,-7,47,35,8,-3,
107715346152,35,11,-52,12,-88,-39,-37,-3,
107715346152,-12,2,7,56,6,28,39,1,
107715353693,31,30,-9,5,59,28,13,16,
107715353693,-2,6,11,58,63,-12,-20,-1,
107715361141,8,-16,73,-65,2,-19,-7,-6,
107715361141,-53,-15,-97,31,-15,-6,-7,-9,
107715376149,-77,12,66,26,-84,10,-8,-22,
107715376149,20,-7,0,-27,58,-10,-11,-6,
107715383840,-1,2,-87,34,-52,15,-11,6,
107715383840,9,-8,71,3,-9,-20,13,-4,
107715391621,-23,47,12,-1,-52,-3,-6,7,
107715391621,28,-18,17,28,-11,-2,-27,-9,
107715398608,9,-8,-15,-32,20,-8,-6,-7,
107715398608,-20,8,63,50,-44,8,6,-1,
107715421204,20,17,29,12,25,7,-19,13,
107715421204,-17,-12,-50,48,-4,6,0,0,
107715451271,16,17,-17,-10,15,18,-8,-7,
107715451271,-4,8,110,-61,-61,-26,4,11,
107715473800,21,-14,-118,37,34,0,10,-3,
107715473800,-27,35,81,-33,12,23,5,-9,
107715488891,-36,-49,-42,36,-77,-2,7,-3,
107715488891,9,32,6,-23,95,24,10,-3,
107715496296,15,-31,-29,-32,10,-30,-33,-5,
107715496296,15,9,-39,-30,-81,-30,-2,4,
107715511120,-16,22,107,12,7,-5,6,4,
107715511120,10,-1,-41,11,54,0,10,0,
107715526156,-21,0,23,72,-11,12,17,9,
107715526156,-2,25,22,-45,19,-12,8,0,
107715541369,4,-38,-84,-79,15,26,-12,-10,
107715541369,3,-26,-43,111,25,-67,-19,12,
107715563692,-4,-6,-16,-73,74,75,17,-8,
107715563692,8,-18,-42,-30,-105,36,13,7,
107715571251,-22,17,-41,18,-16,-26,-15,0,
107715571251,-21,0,30,35,61,-32,-35,-13,
107715578712,-1,-31,-15,-75,-11,36,42,0,
107715578712,17,8,-28,5,-48,-13,-37,3,
107715593884,13,-8,32,76,38,15,10,0,
107715593884,19,54,83,10,-21,12,31,24,
107715608585,-5,6,-4,-30,66,-11,-9,1,
107715608585,-2,3,24,25,-20,-11,18,1,
107715623873,-16,16,10,-48,-115,-26,2,-20,
107715623873,17,-19,44,32,66,20,-4,3,
107715646199,-10,-22,-82,-23,-24,-8,16,2,
107715646199,0,22,57,-1,76,14,-24,-14,
107715668622,-28,25,46,-45,1,-5,-12,-4,
107715668622,-19,-36,-51,17,-44,10,6,-11,
107715683988,13,4,69,31,4,-11,3,22,
107715683988,-13,32,64,-21,74,33,-26,-26,
107715698951,-3,-13,-34,0,-36,-23,13,7,
107715698951,1,-15,-46,1,14,34,7,-11,
107715706108,15,10,23,-14,-81,-2,-34,-7,
107715706108,1,4,88,47,105,15,33,20,
107715728626,14,-17,-35,-63,-51,-16,-34,3,
107715728626,4,-12,-40,-24,1,23,15,4,
107715736179,16,16,-71,0,27,67,23,-5,
107715736179,-9,-3,14,49,-11,1,1,12,
107715773868,-5,23,55,-46,14,13,-24,-8,
107715773868,-10,-18,-113,-30,-43,12,26,-3,
107715781191,1,-6,29,11,13,-44,-16,-5,
107715781191,26,37,115,-7,-50,17,-8,5,
107715788887,2,-26,-37,7,53,24,7,7,
107715788887,-18,12,34,26,12,-15,4,-3,
107715796085,21,-1,-20,25,19,-11,-17,-5,
107715796085,-79,-28,-100,-61,-36,4,-5,-17,
107715803977,23,7,62,-49,5,19,11,15,
107715803977,9,11,34,49,-16,-26,-14,8,
107715818667,0,-7,-32,14,-48,-16,-18,4,
107715818667,19,17,40,6,4,-7,25,-3,
107715841405,11,22,46,51,17,-2,19,5,
107715841405,-24,-37,-126,-53,21,-19,-8,-1,
107715856360,9,6,85,81,18,-30,-20,3,
107715856360,40,7,-20,-17,68,14,10,22,
107715901421,-31,-30,40,22,61,37,12,-23,
107715901421,0,-6,-49,-52,-32,-14,10,3,
107715916224,-12,-4,-13,-3,-18,18,27,0,
107715916224,31,4,11,0,-8,10,-5,-3,
107715938723,-63,15,28,2,42,14,-3,-18,
107715938723,7,-17,98,-29,-32,4,-7,-7,
107715946092,25,24,47,-24,9,9,-20,-21,
107715946092,-6,45,84,14,-19,-27,0,13,
107715953965,14,-19,-21,-46,21,34,3,6,
107715953965,-29,-30,-122,23,31,-6,-5,1,
107715961181,-2,0,86,45,19,-7,-20,-8,
107715961181,13,12,12,-10,-38,2,43,8,
107715968727,32,8,-15,26,-10,54,-2,13,
107715968727,-32,-17,-71,-26,1,-13,-38,-21,
107715983766,-52,37,1,27,33,14,7,1,
107715983766,58,-17,25,8,-54,-22,-4,16,
107716006401,11,12,-42,-40,-5,-11,-6,-2,
107716006401,-5,-9,0,-28,-18,-9,12,-3,
107716013583,53,12,91,-2,-52,-48,-15,-1,
107716013583,-7,28,-81,69,-8,37,21,10,
107716036107,-25,-41,-11,-27,5,3,4,9,
107716036107,-5,-19,39,-89,-33,-13,-33,-23,
107716043751,8,5,-36,82,23,6,45,13,
107716043751,24,16,13,-22,-44,25,9,13,
107716058903,-37,-10,-61,-60,24,-21,11,6,
107716058903,25,-21,-70,31,-9,5,-5,-12,
107716066164,-10,-7,9,10,5,-32,-34,-8,
107716066164,5,14,15,-42,40,13,8,1,
107716081297,-24,-15,-6,31,-30,-2,-3,-11,
107716081297,-2,-11,-6,29,3,1,0,10,
107716096217,-11,-28,-70,-68,-6,-2,9,1,
107716096217,-32,-4,-33,107,-49,-50,2,-14,
107716118643,-38,0,-30,-46,32,14,27,-11,
107716118643,-4,-45,-11,41,52,10,-19,-10,
107716163630,-48,-17,-36,-23,-123,-19,2,-13,
107716163630,6,-23,-59,20,97,11,-13,0,
107716171435,51,23,67,-23,-34,18,12,14,
107716171435,9,20,87,-45,22,4,7,14,
107716178659,8,-30,-128,-2,-60,-22,-10,-3,
107716178659,-17,25,67,14,58,-13,-7,-9,
107716201194,-10,-7,-7,-4,-9,-22,-23,-11,
107716201194,-33,-38,-28,0,-11,10,-6,-1,
107716208692,7,19,17,-11,-61,0,8,7,
107716208692,11,18,13,6,39,-5,-20,1,
107716216121,28,2,-29,31,62,-39,-26,4,
107716216121,-21,-40,-33,-41,-43,14,14,-22,
107716223831,1,14,84,74,79,-8,-2,9,
107716223831,0,17,11,-50,-17,25,16,10,
107716268903,8,3,-8,64,55,-9,2,-3,
107716268903,-52,-8,3,-13,27,9,3,-21,
107716283855,-10,-21,-28,-26,-106,-17,-1,-5,
107716283855,24,-17,-44,-19,80,1,-6,7,
107716291237,-23,-6,-9,-12,-55,1,-1,0,
107716291237,17,0,0,9,3,27,-4,-4,
107716306176,-18,-29,-80,-17,81,13,1,-5,
107716306176,-11,8,87,21,-96,-17,-8,-16,
