timestamp,C1,C2,C3,C4,C5,C6,C7,C8,
21314138314,4,14,15,-83,-43,6,-5,2,
21314138314,5,8,-14,48,-13,6,3,-10,
21314145753,-3,-9,-2,-6,-35,-14,-3,-3,
21314145753,4,20,4,-23,74,5,-6,27,
21314153462,-17,-39,7,22,-72,-20,-7,-25,
21314153462,8,7,3,-1,12,5,4,1,
21314160734,1,-5,-29,8,2,7,-2,4,
21314160734,1,-6,15,21,-39,-8,-1,-8,
21314169720,8,23,2,-34,-3,4,1,12,
21314169720,-20,-49,20,-42,-57,-12,0,-8,
21314185407,-5,-6,-40,-32,-9,-4,-1,-14,
21314185407,1,18,17,-16,12,11,0,4,
21314190803,1,13,-16,52,39,2,-1,3,
21314190803,9,10,39,77,55,7,-2,9,
21314205765,1,7,-36,-96,46,-3,-3,19,
21314205765,-10,-14,15,67,-2,-6,-2,-25,
21314213301,1,0,-10,-80,-103,-9,0,2,
21314213301,-13,-15,-39,41,28,-3,0,-30,
21314222197,6,-3,69,26,38,8,2,17,
21314222197,2,15,-46,-66,-9,0,-1,3,
21314228370,-9,-32,14,80,4,3,2,-33,
21314228370,11,27,46,13,13,1,-2,24,
21314245267,-5,-5,-81,18,-34,-5,-3,1,
21314245267,-9,-14,22,-52,80,-3,-1,-25,
21314250703,1,9,16,40,-63,0,0,13,
21314250703,6,11,-8,-81,54,-8,-2,9,
21314267163,-17,-21,40,52,-57,-2,-4,-19,
21314267163,11,-2,-22,32,-36,-1,-1,18,
21314274757,-10,-15,-33,-110,88,-1,-5,-15,
21314274757,-13,0,6,54,1,-10,-2,-17,
21314280780,11,17,-25,41,86,11,0,7,
21314280780,5,4,14,-35,-98,-2,3,-1,
21314288196,12,20,35,68,92,7,2,8,
21314288196,-18,-43,-50,-51,-81,-5,-7,-6,
21314303362,8,7,8,6,-14,-6,0,-8,
21314303362,-7,3,-4,-10,-28,-6,-1,-17,
21314312717,4,-2,10,49,3,2,1,12,
21314312717,7,34,-15,-77,15,5,-5,22,
21314327869,-3,-32,27,74,89,1,0,10,
21314327869,-22,-21,-41,-44,-112,-15,-5,-29,
21314333273,0,-12,49,3,28,-5,7,-10,
21314333273,8,25,-81,-34,-49,4,-1,8,
21314340867,0,-16,37,-71,7,-1,-1,-28,
21314340867,10,26,46,84,56,6,3,13,
21314348258,-2,9,-52,-21,30,3,-5,35,
21314348258,-25,-51,18,-8,-8,-13,-4,-44,
21314366518,18,74,16,2,-64,14,4,16,
21314366518,-2,-51,1,73,15,-9,-7,14,
21314378558,-16,-23,-22,24,-82,-4,-5,-25,
21314378558,-6,-11,-5,-62,-62,-13,-2,-6,
21314395293,-5,-3,-11,-11,-71,-7,0,-12,
21314395293,13,34,34,-42,14,11,3,10,
21314400776,6,5,1,109,24,6,-5,18,
21314400776,-13,-52,-26,-8,74,-1,-4,6,
21314408273,-7,18,15,-17,97,-1,-2,-9,
21314408273,-11,-62,-47,-38,-3,-1,0,-12,
21314415797,10,32,20,-55,54,2,3,-2,
21314415797,5,13,7,27,44,16,1,-5,
21314438317,0,-14,6,111,-23,-2,1,-17,
21314438317,3,14,27,-70,4,1,-2,14,
21314445786,-7,-25,-33,2,24,-6,-4,-9,
21314445786,12,39,21,-13,30,8,1,22,
21314453785,-11,-3,-21,-10,42,6,-9,-1,
21314453785,-3,-21,33,81,-6,-2,-1,-5,
21314460738,6,36,26,11,-54,6,2,21,
21314460738,-7,-4,-85,-106,-25,-14,-5,-24,
21314468264,-12,-62,42,75,-9,-3,-1,-39,
21314468264,14,47,54,91,4,7,2,25,
21314483252,-8,-21,-45,-72,-4,-5,-2,-3,
21314483252,9,22,38,127,101,10,4,4,
21314490785,4,24,-11,-128,-96,0,-5,18,
21314490785,-11,-29,-22,55,-14,-11,-1,-18,
21314513296,8,25,15,-54,-27,-1,-1,3,
21314513296,-5,-17,9,42,-29,-7,-2,-11,
21314520788,-9,1,-56,-33,39,-9,0,-5,
21314520788,4,11,23,-46,93,9,1,0,
21314528229,7,-2,16,117,-95,-2,-4,29,
21314528229,-19,-35,-56,-128,-6,-10,-7,-30,
21314535835,2,-9,87,127,82,1,2,-21,
21314535835,6,15,-81,-19,58,9,1,10,
21314550773,-3,-2,29,-48,-20,5,-2,-14,
21314550773,2,-2,48,71,-17,-1,0,7,
21314558282,3,-11,-44,73,-17,-10,0,37,
21314558282,-7,-23,-15,-121,-38,-12,-4,-3,
21314565774,-14,-44,-8,127,31,-6,2,-51,
21314565774,2,6,26,15,-69,-2,4,3,
21314573318,8,25,22,-61,42,8,1,11,
21314573318,-10,-3,-66,-2,-17,1,-2,-7,
21314580829,7,31,30,-12,115,7,-2,6,
21314580829,1,-32,1,80,48,12,-2,16,
21314588369,-2,34,-14,-86,-101,-6,-4,-1,
21314588369,-10,-45,-2,38,61,-14,-4,-13,
21314603334,-3,9,15,-24,-99,-2,1,-8,
21314603334,15,37,7,83,52,7,1,7,
21314610861,4,12,-2,-39,-9,-4,-4,8,
21314610861,-9,-34,-24,30,-93,-5,-4,-15,
21314625784,2,-16,18,-5,40,-5,-4,-6,
21314625784,-10,5,-17,-26,39,-5,-6,-9,
21314633200,13,48,29,-31,-45,13,3,16,
21314633200,-1,3,0,-78,-39,-1,-4,1,
21314640674,-21,-48,-21,86,-10,3,-1,-21,
21314640674,9,38,59,11,46,0,1,24,
21314648179,-3,-28,-76,-78,-19,-6,-3,0,
21314648179,-16,-1,36,-4,16,-5,1,-43,
21314663211,17,27,18,-10,37,14,3,31,
21314663211,0,-11,-1,-41,-94,-2,-3,4,
21314670873,-16,-65,-35,32,-64,-22,-5,-31,
21314670873,10,19,12,-9,-48,-2,4,3,
21314685824,2,-22,-12,39,48,-5,-2,11,
21314685824,-10,-22,28,-47,27,10,0,-4,
21314693219,8,22,-73,-32,31,-1,-3,22,
21314693219,-4,9,54,15,-8,5,-2,-11,
21314700758,-13,3,-20,-82,18,-14,-3,-18,
21314700758,-21,-90,-16,66,-91,-9,0,-34,
21314708183,7,9,30,-26,40,14,3,0,
21314708183,11,8,7,45,118,-5,-2,19,
21314723307,16,66,7,37,-97,11,0,35,
21314723307,8,25,-15,-49,76,6,-3,18,
21314730944,-28,-31,-16,-72,-66,-19,-4,-18,
21314730944,-26,-97,-36,81,-68,-23,-4,-46,
21314745999,17,45,3,-102,-44,12,7,12,
21314745999,-8,-16,-28,-57,-12,-2,-3,-22,
21314753245,6,-1,54,119,11,-1,3,-7,
21314753245,25,48,39,68,96,20,-2,51,
21314760691,-13,-33,-47,-55,13,-15,-6,-7,
21314760691,-15,-32,13,56,-52,-6,-3,-23,
21314768211,12,46,-18,-92,65,9,1,17,
21314768211,3,15,19,88,-18,3,-1,3,
21314783222,-23,-42,-4,39,100,-25,-6,-24,
21314783222,20,74,-12,44,100,14,0,32,
21314790763,-3,-6,42,-28,-67,-2,-3,-17,
21314790763,-6,-26,-62,-5,-59,-19,-1,-10,
21314805711,-2,-17,20,-68,-1,4,-3,-11,
21314805711,-5,-24,-5,36,2,-3,2,-11,
21314813189,5,20,38,127,71,11,3,10,
21314813189,13,69,-12,-113,1,10,-1,27,
21314820788,-13,-22,-22,3,3,-6,-4,-11,
21314820788,-21,-51,26,-9,-56,-19,-7,-19,
21314828193,7,26,-62,47,-42,-5,1,9,
21314828193,-9,-9,35,-65,-45,-1,1,-22,
21314843216,5,18,-7,62,39,1,-1,3,
21314843216,6,-16,-65,-97,-89,-7,0,11,
21314850728,-10,-27,31,23,122,8,-3,-13,
21314850728,0,22,30,-14,-32,0,0,5,
21314865688,2,-11,-58,14,11,2,-2,6,
21314865688,8,49,59,-5,-14,-3,-2,5,
21314873179,-6,-20,-26,-37,-49,-5,-2,-8,
21314873179,-13,-32,-50,-33,-46,-10,-1,-20,
21314880723,9,27,79,127,-11,8,3,5,
21314880723,0,10,-56,-128,49,1,-4,10,
21314888317,-2,1,58,102,-18,-4,2,-16,
21314888317,8,13,-44,107,-64,0,-3,26,
21314903267,-17,-21,-7,-85,60,-12,-2,-14,
21314903267,-6,7,-15,-65,-110,-12,0,-19,
21314910701,-4,-8,10,33,12,1,1,-33,
21314910701,7,-2,60,70,40,19,4,27,
21314925955,-12,-14,-69,-89,-30,-10,-3,-21,
21314925955,5,-2,37,74,63,11,3,12,
21314933526,0,8,29,-74,73,1,-5,25,
21314933526,3,50,-95,-35,-57,4,-6,18,
21314940988,-20,-79,33,-11,-87,-19,-9,-42,
21314940988,4,5,41,83,75,-2,5,-1,
21314948520,6,0,-52,-75,-55,-9,-1,8,
21314948520,-11,-22,30,92,99,1,1,-34,
21314963507,11,43,-22,-128,93,8,-1,29,
21314963507,0,-19,50,111,-32,4,0,-11,
21314978452,-5,18,-66,-71,-4,-1,-2,21,
21314978452,-12,-50,34,27,-4,-14,-1,-29,
21314985924,6,-5,-29,-16,-24,3,1,8,
21314985924,-2,16,38,46,63,-2,1,-15,
21315000975,4,-2,50,34,-119,-7,6,-18,
21315000975,12,37,-38,19,55,7,-5,31,
21315015950,-10,-66,-9,23,14,-8,-3,-7,
21315015950,-12,-17,10,-37,32,0,-1,-22,
21315023440,24,89,25,64,90,12,2,32,
21315023440,-13,-69,-35,-57,-94,-11,-6,-4,
21315038234,-18,-43,-1,7,41,-9,-4,-37,
21315038234,13,25,8,-78,-46,1,1,13,
21315045993,0,-24,1,53,20,5,4,6,
21315045993,5,26,-4,-52,24,11,-4,17,
21315060898,-10,-4,-15,-35,-109,-22,4,-38,
21315060898,7,32,-8,35,59,6,0,13,
21315075956,-15,-82,26,-30,-96,-16,-3,-5,
21315075956,16,44,5,-101,62,5,4,12,
21315083459,5,4,0,92,24,15,0,7,
21315083459,-21,-56,-46,-62,-30,-10,-2,-23,
21315098284,19,51,62,85,6,7,7,10,
21315098284,4,-2,16,-29,72,3,-2,38,
21315105727,-9,-29,-36,39,-87,-7,-6,8,
21315105727,-8,-9,-23,-42,-8,-6,-3,-39,
21315128487,2,7,7,6,53,8,0,-7,
21315128487,15,58,27,36,42,14,-2,35,
21315143417,-21,-59,-32,71,84,-4,-4,-10,
21315143417,-4,7,13,-38,24,-10,2,-14,
21315150863,13,37,8,13,-28,16,2,27,
21315150863,-4,-24,-51,-55,10,-14,-1,-17,
21315166028,6,25,74,61,-81,10,3,-3,
21315166028,2,12,-51,-24,-91,-1,-8,28,
21315173424,-25,-40,23,27,67,-17,-10,-41,
21315173424,10,14,37,-17,-58,-4,4,-15,
21315181000,-3,11,31,-43,-24,0,-3,4,
21315181000,-4,21,-43,-4,19,-10,0,7,
21315196067,4,21,13,17,101,1,-2,1,
21315196067,3,10,-18,0,-69,20,-4,3,
21315203366,-1,-12,7,-20,-45,-5,-2,-2,
21315203366,-13,-30,30,4,28,-3,-2,-11,
21315218299,-9,-30,-56,-40,59,-4,-3,-5,
21315218299,-5,-28,47,43,-79,-11,6,0,
21315225840,12,18,-71,17,-42,17,3,16,
21315225840,-14,-21,27,2,-50,-10,-6,-13,
21315240853,-8,-37,0,-34,11,-15,-3,5,
21315240853,-1,17,-2,46,49,8,-2,5,
21315255834,5,20,-10,-61,-93,8,0,9,
21315255834,-5,-18,-31,107,34,3,-2,-7,
21315263295,11,73,40,-125,-3,-2,-2,27,
21315263295,-11,-67,-32,-13,-122,-24,-5,-27,
21315278525,-10,-19,4,124,55,-17,2,-30,
21315278525,9,9,3,-110,-50,5,3,17,
21315285932,-7,-44,10,116,47,1,-2,-12,
21315285932,16,64,19,28,125,23,0,41,
21315300748,1,-14,6,54,-34,10,4,-10,
21315300748,5,-24,45,91,18,15,3,21,
21315315842,3,23,-65,-87,-109,-2,-7,18,
21315315842,-22,-66,36,47,-19,-32,-4,-48,
21315323488,-2,-5,3,-9,-17,-10,4,-18,
21315323488,8,38,32,33,-23,-7,-1,1,
21315345960,12,52,-25,31,127,24,0,42,
21315345960,-5,-28,12,-45,11,14,-7,17,
21315353200,-11,-21,-63,-28,-84,-10,-7,-19,
21315353200,-3,13,8,-45,-46,-1,-1,-21,
21315368498,-3,-2,50,11,97,-5,1,-7,
21315368498,-4,11,-31,80,-40,10,4,-7,
21315383314,2,-1,2,11,3,4,-4,0,
21315383314,4,-2,-24,-3,41,-3,1,20,
21315398362,1,27,106,54,4,-5,3,-2,
21315398362,-21,-65,-73,-40,32,7,-9,-9,
21315405787,0,24,11,-128,77,13,-1,-10,
21315405787,-1,3,22,24,-11,2,-2,1,
21315420765,0,9,39,33,-8,-6,-3,4,
21315420765,-15,-53,-64,-70,6,-5,-6,-22,
21315451031,7,32,26,14,36,12,4,1,
21315451031,15,19,12,52,83,0,-3,28,
21315458191,-8,-1,-11,-9,-42,-11,-4,16,
21315458191,-9,-12,17,-12,31,3,-3,-17,
21315473293,3,0,-100,-19,40,13,-4,15,
21315473293,-13,-18,21,-92,-31,-11,-2,-32,
21315480934,9,-19,73,5,48,6,6,-17,
21315480934,12,30,-79,-79,-57,-7,2,20,
21315495757,3,-21,-25,67,-33,-6,0,11,
21315495757,-1,8,30,3,-93,-6,-3,-4,
21315503345,9,16,-20,62,71,11,2,6,
21315503345,7,34,9,93,67,6,0,26,
21315511011,2,14,62,34,-9,2,-5,27,
21315511011,-19,-30,-103,-109,7,-18,-6,-21,
21315525966,-13,-40,-52,87,1,-10,-4,-35,
21315525966,20,27,40,0,-29,2,0,30,
21315540802,-9,-15,8,46,24,-7,-4,-3,
21315540802,-12,-2,-19,-48,26,1,1,-8,
21315548352,11,20,5,-3,33,1,-3,10,
21315548352,2,-8,55,69,70,2,-3,15,
21315563356,-21,-55,-85,-127,-128,-25,-4,-21,
21315563356,16,9,66,93,86,20,10,2,
21315578422,1,33,-47,-54,-33,-1,-2,19,
21315578422,-19,-45,-19,1,-69,-2,-4,-35,
21315593414,-6,12,-24,22,98,14,-4,9,
21315593414,-2,-7,13,-55,-33,-16,-4,-4,
21315608284,-1,-6,8,-128,-128,-11,1,-17,
21315608284,-8,-22,-27,38,-2,-6,-3,-15,
21315616008,15,35,8,59,52,19,3,15,
21315616008,-2,11,-26,-67,1,-2,-5,9,
21315630950,-9,8,-36,-14,-128,-29,-6,-13,
21315630950,13,5,19,-7,29,0,4,-4,
21315645814,8,13,-4,-35,76,18,-2,35,
21315645814,-21,-31,-38,-33,7,-4,-6,-24,
21315660977,7,23,46,45,29,5,6,-5,
21315660977,4,19,-24,-8,-11,3,-4,20,
21315668220,-2,5,29,-75,-49,-8,-1,0,
21315668220,1,-30,-32,-38,-62,-6,3,-5,
21315683502,-7,-13,17,109,-6,-7,-4,-15,
21315683502,-6,-13,-18,-101,-70,-13,-1,-7,
21315690956,1,1,7,41,-17,8,5,-12,
21315690956,5,30,23,58,-29,-1,1,9,
21315705801,-16,-71,-45,16,-26,-13,-2,-34,
21315705801,1,9,45,-22,9,4,2,3,
21315720938,0,9,-72,-34,-51,-2,0,-6,
21315720938,-1,-18,41,-23,49,2,2,-3,
21315728556,4,-6,28,60,74,7,3,21,
21315728556,-2,-3,-38,-45,-68,3,-6,6,
21315743525,9,51,39,-103,34,4,-1,4,
21315743525,1,-24,-13,33,-83,-5,-5,-10,
21315750946,-11,-54,18,74,72,-8,-3,-10,
21315750946,4,24,-21,25,63,-2,3,0,
21315773248,-4,-4,35,45,-32,7,-1,-9,
21315773248,5,11,-8,-36,27,0,-2,7,
21315788513,5,48,5,-3,-69,10,-2,19,
21315788513,-7,-68,1,-5,-32,-6,-3,-19,
21315795983,2,22,-13,-19,68,-4,-2,-7,
21315795983,9,-1,-52,-18,-44,12,1,10,
21315810950,12,58,-5,-28,69,7,-3,21,
21315810950,-25,-75,-24,-10,-19,-19,-6,-26,
21315833564,-16,-70,-29,20,-11,3,5,-43,
21315833564,14,27,49,102,57,8,3,28,
21315848420,-25,-66,-26,-84,-59,-20,-6,-9,
21315848420,0,-13,6,71,48,9,9,-37,
21315855935,12,42,-20,21,18,11,5,28,
21315855935,1,6,-22,-51,-108,10,-3,4,
21315870762,-4,2,12,4,-34,-19,-3,-15,
21315870762,8,-6,17,6,2,-2,-1,10,
21315878423,-4,4,-25,-93,-45,-13,-4,-5,
21315878423,-2,-30,25,69,28,1,-4,-4,
21315886026,21,35,35,73,67,10,1,12,
21315886026,8,63,39,-62,-53,22,-2,39,
21315900747,-51,-104,-95,-12,-128,-36,-5,-61,
21315900747,2,-23,65,79,48,4,5,-24,
21315908483,13,46,-62,17,43,12,-1,38,
21315908483,7,26,78,40,101,6,2,-2,
21315923255,-3,-13,-72,-81,-49,-3,-2,5,
21315923255,0,1,25,21,14,6,2,-5,
21315930978,-6,-26,6,-9,-64,-13,-7,-1,
21315930978,-17,-26,-67,-88,42,-17,-4,-23,
21315945974,-17,-16,-18,-128,-128,-22,-7,-28,
21315945974,-21,-65,75,127,104,0,0,-23,
21315960886,10,15,-63,-128,-84,-13,-1,17,
21315960886,14,27,22,122,-23,3,2,-7,
21315968270,3,8,-9,-128,-7,2,-1,11,
21315968270,-2,-29,2,94,-39,7,-2,-13,
21315983499,3,15,-4,-21,53,3,-3,7,
21315983499,0,29,42,3,127,11,0,19,
21315990834,-9,-37,-61,-49,-117,-2,-1,-5,
21315990834,-4,15,-23,0,-7,-21,1,-20,
21316005958,-9,-22,45,-3,75,-13,-3,-22,
21316005958,13,47,4,2,-77,9,2,17,
21316020785,-6,-25,5,79,-23,-8,-2,-18,
21316020785,-4,9,-19,-47,63,1,-3,4,
21316028425,-15,-24,-10,-4,-81,-9,1,-26,
21316028425,4,3,-15,8,37,3,2,-3,
21316043443,14,56,32,-93,-59,9,-1,20,
21316043443,-8,-41,-18,37,38,-12,-7,-15,
21316050784,2,0,10,-9,-16,7,4,-1,
21316050784,-13,-33,-3,12,-32,-22,-4,-18,
21316065788,-2,30,15,65,30,7,-3,-13,
21316065788,6,11,24,-72,9,3,-2,28,
21316080996,-8,4,-43,31,-50,-9,2,-18,
21316080996,-16,-68,-4,22,-24,-1,0,-24,
21316088407,3,9,41,38,17,-6,-1,9,
21316088407,-1,32,-43,-16,-23,-5,-2,0,
21316103295,-1,0,6,-62,119,8,-5,3,
21316103295,10,44,-2,-104,-128,-3,2,18,
21316110971,-16,-71,-37,87,46,-4,-3,-33,
21316110971,16,70,40,-16,1,12,3,10,
21316126019,9,30,9,-19,-120,-7,-4,15,
21316126019,-38,-69,-43,-4,63,-21,-5,-45,
21316140817,1,20,23,79,68,11,0,4,
21316140817,2,-1,28,19,-47,-7,-2,19,
21316148474,13,60,-9,-22,37,1,-3,27,
21316148474,8,-27,-4,6,-73,-2,0,-3,
21316163449,-1,-25,-13,-49,-45,2,2,-2,
21316163449,-19,-16,2,63,74,-3,-4,-16,
21316170816,6,6,-18,-22,107,7,-1,17,
21316170816,-11,-15,-10,-75,-110,-12,-1,-26,
21316186013,6,35,14,103,-9,-2,1,-6,
21316186013,-2,-38,-1,-83,-4,-13,-5,9,
21316193284,-17,-43,-32,57,77,8,1,-26,
21316193284,12,51,51,54,98,17,0,37,
21316208250,8,27,34,-43,71,-6,0,5,
21316208250,-7,-57,-13,-66,1,12,5,-6,
21316223246,8,11,13,91,100,21,2,7,
21316223246,11,49,22,86,-28,-5,-3,25,
21316230750,-5,-25,-33,-76,-91,-2,-3,-10,
21316230750,15,44,-2,58,127,1,1,17,
21316245962,-1,-2,41,101,91,3,6,-2,
21316245962,1,10,-12,-87,-128,-16,-2,5,
21316260989,4,-2,15,85,127,0,-2,8,
21316260989,-3,26,-30,-51,-88,1,-3,4,
21316268194,-23,-67,5,-30,-81,-8,2,-27,
21316268194,10,13,2,71,100,22,1,13,
21316283276,3,12,-27,-105,-82,4,-1,13,
21316283276,-11,-45,32,47,-1,-12,-4,-23,
21316291019,12,62,-27,80,-22,1,-2,15,
21316291019,-16,-25,16,-68,-68,-15,-8,-28,
21316305746,6,26,10,-14,61,21,-3,31,
21316305746,-2,0,-11,0,-68,-7,-3,3,
21316320755,-16,-67,-5,60,-54,-31,0,-55,
21316320755,4,-1,-21,-100,18,-6,3,1,
21316328432,4,10,5,15,42,-3,-4,-4,
21316328432,15,38,24,-31,76,16,1,18,
21316350990,-2,7,-6,10,-26,5,0,22,
21316350990,-23,-38,-17,31,-36,-15,-6,-27,
21316358252,2,33,41,-78,19,11,-1,9,
21316358252,-8,-7,-33,109,-87,-11,-4,-7,
21316373395,-3,-24,-17,-92,89,19,0,-7,
21316373395,14,35,53,72,-103,-3,5,9,
21316380824,-11,-25,-36,-56,33,-22,-4,-9,
21316380824,-9,-48,2,30,-75,-6,0,-33,
21316396010,-5,-1,-12,-18,8,-3,-3,-13,
21316396010,3,2,67,54,-40,-10,2,-1,
21316418209,-9,-44,24,18,-14,-18,1,-26,
21316418209,12,16,32,78,59,8,1,15,
21316433490,10,60,-75,-72,53,3,-6,38,
21316433490,-18,-51,38,58,-92,-22,-7,-45,
21316440938,0,-12,23,71,-108,-1,5,-23,
21316440938,-2,29,-37,-90,23,-7,-4,2,
21316455993,-9,-10,0,1,8,-3,-5,-13,
21316455993,6,-8,-3,86,67,4,-1,17,
21316470812,8,-3,-19,-106,-121,-4,0,26,
21316470812,-1,20,15,42,83,1,-1,-7,
21316485963,8,20,16,-17,87,5,-3,26,
21316485963,-14,15,-27,-108,-32,-16,-6,-25,
21316493425,-5,-32,-80,118,-24,-3,-1,-32,
21316493425,1,-25,56,38,14,0,2,11,
21316508241,2,22,32,-128,-128,-13,2,-7,
21316508241,-20,-44,11,49,37,-19,-3,-47,
21316523246,20,4,66,127,21,27,6,34,
21316523246,11,13,-4,-90,-45,-6,-4,62,
21316530981,-14,-40,-71,34,25,-10,-3,-23,
21316530981,11,41,-12,-86,18,13,-2,14,
21316545950,-3,-12,44,-21,11,-1,-2,-12,
21316545950,-1,4,-46,30,108,8,-6,25,
21316553228,10,44,31,-19,-15,7,-2,12,
21316553228,2,7,-52,-128,-64,3,-4,22,
21316568293,4,-2,-48,-102,14,5,2,30,
21316568293,-19,-56,-91,110,60,20,-2,-37,
21316583431,4,6,57,-52,-113,-16,5,-32,
21316583431,14,7,13,81,109,33,2,56,
21316590828,-15,14,-22,-42,-102,-24,-14,0,
21316590828,-9,-54,49,41,-57,-16,4,-55,
21316605762,9,-2,10,45,50,11,3,-3,
21316605762,9,39,-12,-10,-32,5,0,31,
21316613451,-1,-1,10,-6,-9,7,-3,16,
21316613451,-12,-19,-35,-42,-74,-4,-3,-4,
21316628487,-18,-66,62,102,127,17,-9,-11,
21316628487,-16,26,-120,-128,-128,-39,-4,-5,
21316643471,-26,-103,62,77,62,-17,3,-63,
21316643471,3,22,-1,33,24,-4,5,-9,
21316651026,11,36,26,42,-22,6,1,27,
21316651026,1,12,21,-24,95,12,-3,7,
21316665996,13,49,-29,82,-90,12,4,8,
21316665996,-18,-72,12,-91,-69,-17,-7,-28,
21316673468,9,45,-41,-2,4,12,4,10,
21316673468,-4,-54,31,-59,-100,-15,-3,1,
21316688596,19,37,-17,63,-9,5,4,31,
21316688596,6,48,8,-108,67,7,-8,26,
21316703276,-26,-46,-19,72,8,-14,-4,-36,
21316703276,10,21,-26,-73,29,20,3,15,
21316711043,11,36,73,70,-11,-2,-1,19,
21316711043,-1,-11,-86,-53,-28,-14,0,-1,
21316725905,-19,-80,13,-21,-105,-20,-4,-57,
21316725905,9,26,-5,48,122,10,4,4,
21316733308,-2,28,-40,-128,-21,1,-2,7,
21316733308,-3,-11,82,122,91,5,0,-10,
21316748495,-9,-41,-95,-33,-82,-15,-1,-25,
21316748495,13,9,117,127,92,22,5,49,
21316763282,-1,50,-104,-128,-35,-12,-12,15,
21316763282,-21,-73,80,127,-55,-10,8,-102,
21316770977,4,-38,114,109,-105,-2,7,-13,
21316770977,15,21,-89,109,58,4,3,19,
21316786031,11,30,68,-86,70,18,1,39,
21316786031,-13,12,-66,-18,33,-9,-11,5,
21316793457,-4,-2,37,-1,4,-13,-4,-21,
21316793457,1,-3,-18,18,-65,10,-1,10,
21316808154,-6,-22,73,121,-14,11,-1,-20,
21316808154,3,41,11,53,90,9,-8,23,
21316830973,-16,-34,-94,-62,-111,-19,-3,-42,
21316830973,-3,-16,104,-25,-128,-12,9,-26,
21316838399,-8,-23,-128,30,109,-1,-2,-5,
21316838399,2,-34,92,58,-4,3,4,-20,
21316853374,3,15,-67,-58,31,4,0,14,
21316853374,3,-6,3,48,68,8,2,2,
21316861010,6,36,38,55,37,11,-2,16,
21316861010,-4,-12,-50,-73,-11,-12,-5,1,
21316875864,-10,-19,-10,-91,-32,-7,0,-23,
21316875864,-8,-14,-58,-32,0,-9,-7,1,
21316890935,-2,7,-44,-128,30,-11,3,-18,
21316890935,8,26,54,73,-26,7,4,-6,
21316905932,4,12,2,-20,25,5,-3,14,
21316905932,5,25,-16,113,75,15,-3,31,
21316913419,0,11,-34,-107,-34,0,-4,24,
21316913419,-9,-23,25,42,-66,-19,-1,-51,
21316928454,-8,2,20,25,25,-6,-2,-10,
21316928454,17,55,-43,-53,69,8,-4,26,
