timestamp,C1,C2,C3,C4,C5,C6,C7,C8,
84294885236,15,6,27,-6,-25,9,8,7,
84294885236,-13,-34,-58,-58,-32,-13,-11,-8,
84294900161,-24,1,66,45,8,6,4,-6,
84294900161,-6,-15,8,-1,15,-1,-9,-3,
84294908099,12,10,-87,10,19,1,5,5,
84294908099,21,41,59,36,23,2,-3,0,
84294916552,-8,-61,-102,-78,-58,-14,-6,2,
84294916552,-3,3,34,2,-1,6,3,-1,
84294930268,-33,0,45,-2,-10,-19,-15,-24,
84294930268,13,-40,-57,8,23,18,17,16,
84294947185,11,23,33,3,-1,-3,-4,-3,
84294947185,-8,26,-29,-8,-17,-12,-7,-11,
84294952928,12,3,64,59,47,11,0,0,
84294952928,7,28,11,-11,-22,3,6,6,
84294960840,-29,-41,-4,-13,-6,-25,-22,-16,
84294960840,27,2,-69,-2,16,31,30,27,
84294984059,0,-8,-34,-52,-20,-2,1,2,
84294984059,5,6,44,52,16,-9,-1,2,
84295005249,-17,-22,-12,-18,-2,-6,-8,-7,
84295005249,5,-13,-35,-22,-8,7,9,7,
84295020329,16,-26,-49,-17,-2,8,9,16,
84295020329,-20,17,35,1,-12,3,-3,-11,
84295029903,22,22,-23,5,3,20,19,15,
84295029903,5,-4,-8,21,19,-8,-13,-7,
84295042780,43,49,-17,58,63,24,18,17,
84295042780,3,36,97,35,5,5,3,1,
84295057735,-5,16,7,31,19,-4,-5,-8,
84295057735,-3,-21,-55,-32,-26,0,2,-2,
84295075947,4,22,22,7,-1,1,8,6,
84295075947,-32,8,56,-11,-30,-16,-18,-25,
84295080235,-9,-42,1,32,23,-4,0,0,
84295080235,51,82,65,63,46,24,15,17,
84295104102,-3,8,5,-76,-52,-23,-14,-5,
84295104102,-45,-36,30,9,-4,0,-2,-18,
84295110325,26,43,47,69,37,22,15,6,
84295110325,15,20,-33,-24,-10,-1,-3,4,
84295125273,-43,-18,-9,-55,-26,-12,-13,-22,
84295125273,5,-11,25,2,-18,-9,-6,-2,
84295142278,0,7,12,55,31,8,2,1,
84295142278,12,-23,-12,32,21,-7,-9,-5,
84295147765,26,51,48,8,2,19,11,12,
84295147765,-15,-36,-54,-37,-13,-9,-8,-7,
84295156710,-7,-31,-87,2,14,6,-2,-8,
84295156710,3,-25,-16,-24,-13,-14,-8,2,
84295185274,-6,8,35,-16,-12,-12,-10,-7,
84295185274,-13,-17,-94,-56,-23,-2,-5,-8,
84295207771,7,-4,15,-30,-26,-7,0,3,
84295207771,3,-10,-13,10,4,1,1,0,
84295222906,18,46,92,85,43,17,9,10,
84295222906,-27,-39,-61,-27,-1,-20,-25,-25,
84295239117,-29,-50,-20,0,-27,-7,-1,-10,
84295239117,-1,-21,-1,27,29,20,19,11,
84295245441,20,0,4,-26,-12,-5,5,13,
84295245441,-43,-33,-40,-76,-57,-34,-22,-21,
84295275232,-31,22,33,-5,-21,-14,-9,-17,
84295275232,31,-42,-45,-28,-13,-6,5,19,
84295282681,17,12,35,42,24,17,9,7,
84295282681,30,65,71,20,6,12,12,13,
84295297681,-38,-33,-81,-80,-50,-29,-33,-35,
84295297681,-28,-17,50,10,13,5,6,-5,
84295327825,-2,-25,-25,-38,-12,0,0,5,
84295327825,3,19,31,26,9,8,12,11,
84295335209,-5,-21,-88,-42,-24,-10,-10,-5,
84295335209,-21,-11,3,-25,-20,-18,-11,-15,
84295350191,-7,12,28,30,13,5,7,0,
84295350191,-17,-49,-44,-47,-36,-18,-19,-12,
84295365171,-5,19,-6,29,33,8,8,-2,
84295365171,12,41,16,8,16,-1,-6,-2,
84295380252,44,33,25,-7,3,7,15,26,
84295380252,-21,-56,-49,-21,-11,-10,-10,-5,
84295417638,-2,36,13,24,16,-8,-14,-14,
84295417638,1,9,-8,-14,3,5,-3,-7,
84295425175,-42,-42,-20,-36,-36,-21,-11,-15,
84295425175,11,20,100,92,56,37,27,15,
84295440313,6,1,-55,-24,-11,-3,-9,-4,
84295440313,6,28,49,0,-11,-6,-2,-1,
84295447684,-2,10,44,81,28,20,11,5,
84295447684,1,-1,-29,-35,-22,0,-2,-4,
84295477671,-8,-12,4,-11,-9,-13,-12,-9,
84295477671,8,21,6,-9,-2,5,8,8,
84295500134,4,-42,-2,14,6,4,8,13,
84295500134,1,20,26,-1,1,-1,0,-2,
84295515176,-21,-47,-89,-50,-42,-2,7,1,
84295515176,31,61,75,90,67,22,14,11,
84295522814,6,44,57,5,-4,-4,-20,-21,
84295522814,-8,-10,-33,-35,-19,1,4,0,
84295545155,11,23,26,-20,-22,2,1,5,
84295545155,-27,-30,-12,6,4,-5,-12,-12,
84295560396,-3,7,-23,-19,-2,-2,-2,-7,
84295560396,14,1,-31,-29,-31,3,7,10,
84295575103,-13,-62,-49,-71,-34,-21,-11,1,
84295575103,-18,30,45,39,17,5,1,-17,
84295612664,-14,3,-10,-32,-11,-6,-11,-16,
84295612664,-8,-41,-55,-41,-34,-3,2,1,
84295627917,24,14,-22,-23,-7,-1,2,8,
84295627917,9,23,-26,-7,-3,-6,-3,4,
84295642684,-2,-10,-10,6,1,-5,-5,-3,
84295642684,4,-4,-16,-33,-6,-5,-3,2,
84295672729,20,7,4,8,3,5,11,13,
84295672729,-8,-45,-32,-25,-20,-11,-11,-6,
84295687889,8,46,70,31,23,-2,2,4,
84295687889,-2,12,18,10,10,-7,-15,-11,
84295695409,-2,-54,-58,-49,-29,-3,1,5,
84295695409,5,47,66,42,34,2,-1,1,
84295725344,2,61,85,82,55,12,1,-8,
84295725344,25,-16,-14,-35,-27,-10,-7,5,
84295747627,-15,-15,-46,-58,-50,-25,-17,-10,
84295747627,-26,4,28,13,11,-3,2,-9,
84295762880,14,-11,10,-38,-25,-6,6,9,
84295762880,-24,-45,-70,15,14,20,15,4,
84295770362,47,74,52,46,26,15,10,12,
84295770362,-40,-34,-60,-52,-24,-23,-20,-23,
84295815114,16,63,60,29,20,5,1,1,
84295815114,-1,-6,12,-4,-5,-13,-10,-6,
84295830167,-19,-31,-35,-25,-21,-9,-12,-14,
84295830167,-6,-20,-17,-11,7,1,2,0,
84295852811,9,46,33,24,5,-4,-6,-6,
84295852811,-7,-13,11,26,22,6,-1,-3,
84295867646,-9,-37,-6,1,6,0,-3,-3,
84295867646,-4,-17,-28,5,-3,-6,-2,0,
84295882678,4,32,46,47,20,-5,-3,-6,
84295882678,15,22,-26,-76,-35,-9,-2,7,
84295890390,-7,-44,-77,-23,1,-1,6,7,
84295890390,-10,22,70,62,14,0,-7,-11,
84295905189,0,-20,-20,-74,-37,-3,-1,-2,
84295905189,2,20,26,73,42,34,28,20,
84295920431,28,4,-10,13,16,13,13,23,
84295920431,-6,-26,-90,-9,-15,-4,-5,-6,
84295935398,-19,-17,47,26,-4,-13,-5,-11,
84295935398,-19,-62,-25,-40,4,-15,-13,-14,
84295950159,43,107,66,48,15,17,18,11,
84295950159,-24,-34,-38,-46,-30,-25,-13,-8,
84295957646,-5,26,55,32,26,30,15,2,
84295957646,7,-21,-42,-47,-29,-10,-3,5,
84295972936,9,-38,-70,-49,-18,-5,-1,8,
84295972936,6,45,21,33,15,11,7,4,
84295987567,6,21,43,32,10,15,16,12,
84295987567,19,41,-28,-19,-10,1,1,1,
84296017665,-20,-40,-34,-49,-40,-16,-10,-6,
84296017665,-13,3,67,43,14,2,-3,-7,
84296025392,15,23,9,76,69,18,13,11,
84296025392,7,-1,-33,-31,-34,-16,-15,-6,
84296055139,-35,-8,-10,-15,-7,-11,-14,-22,
84296055139,23,17,37,41,5,0,6,10,
84296070298,-6,28,74,78,43,17,8,-2,
84296070298,10,51,10,35,24,-12,-15,-10,
84296092834,-19,-16,2,-51,-42,-15,-13,-13,
84296092834,-40,-86,-70,-43,-19,9,7,-5,
84296107678,17,-20,-23,-25,-14,1,12,21,
84296107678,-16,-14,40,-25,-25,-13,-7,-5,
84296115331,5,21,53,14,3,-7,-9,-3,
84296115331,-7,-71,-86,-65,-34,7,1,3,
84296137751,0,12,2,12,1,4,5,-2,
84296137751,6,61,78,25,17,0,-8,-6,
84296160173,20,17,35,-14,-18,-3,1,7,
84296160173,-26,-24,-12,-11,-13,-10,-4,-7,
84296182652,20,55,60,6,-7,15,12,8,
84296182652,13,1,-13,18,11,21,16,21,
84296190414,-24,-24,-57,-48,-3,-11,-21,-17,
84296190414,15,11,35,33,10,-7,-3,4,
84296212614,1,30,6,15,2,-1,-4,-9,
84296212614,-6,5,-2,1,4,-3,-3,-7,
84296220153,-11,-43,-73,-32,-13,-20,-15,-10,
84296220153,8,38,28,-10,-20,2,5,3,
84296235305,-1,-25,-33,-8,9,0,7,8,
84296235305,6,22,19,-21,-8,0,-6,-2,
84296242656,14,47,-6,-40,-31,1,1,-1,
84296242656,-6,12,37,48,29,9,3,1,
84296265222,-5,-2,28,-11,-10,-11,-13,-11,
84296265222,5,-26,-71,-58,-14,3,5,7,
84296295140,0,-7,-69,-15,-3,7,7,3,
84296295140,6,45,82,41,23,-1,-1,-1,
84296317848,-36,-58,-20,-35,-19,-21,-18,-19,
84296317848,44,75,80,66,30,24,27,23,
84296332646,16,33,-13,15,15,15,9,7,
84296332646,-12,-19,13,0,-4,-19,-20,-13,
84296355190,-2,-8,-11,-12,12,0,-3,-2,
84296355190,-10,12,7,-16,-11,-5,-2,-7,
84296370310,32,58,96,52,23,18,16,15,
84296370310,-2,-12,-18,7,11,4,1,2,
84296377622,-22,-11,-43,-26,-14,-18,-20,-19,
84296377622,-4,-1,54,24,12,8,4,1,
84296385349,11,13,36,24,30,2,-4,-4,
84296385349,15,-7,23,33,6,-3,4,11,
84296392808,-6,-18,-16,-23,-16,-5,9,7,
84296392808,6,74,45,36,42,18,4,-2,
84296407703,-37,-85,-87,-11,-15,-13,-16,-19,
84296407703,51,65,85,92,52,32,20,22,
84296422766,-2,1,-6,-45,-30,-14,-10,-7,
84296422766,-5,-25,-26,-17,-10,-9,-3,-4,
84296437853,3,-54,-87,-47,-30,-6,6,5,
84296437853,0,68,100,71,32,20,15,2,
84296460165,35,98,85,78,53,41,21,14,
84296460165,-2,-24,-87,-80,-49,-22,-18,-7,
84296475138,-17,-22,-37,-53,-24,-18,-11,-9,
84296475138,12,21,50,25,15,6,7,6,
84296482622,15,4,41,22,10,0,0,7,
84296482622,-44,-42,-54,-64,-50,-32,-21,-25,
84296512668,23,39,24,82,46,8,2,11,
84296512668,2,26,9,-33,-15,-2,-13,-10,
84296527787,-13,-46,-62,-42,-29,-8,0,-1,
84296527787,-30,-25,0,12,19,-10,-14,-18,
84296550177,14,21,35,33,8,16,19,12,
84296550177,-4,-19,11,-5,-12,0,-2,-2,
84296565116,-3,23,39,21,5,-32,-31,-25,
84296565116,4,-24,-2,33,33,24,22,20,
84296587689,-8,-24,-46,51,43,27,25,14,
84296587689,25,58,25,20,16,-6,-8,-3,
84296595373,-16,-14,-11,3,-5,-8,-11,-10,
84296595373,16,32,88,25,3,1,-1,8,
84296602652,-21,0,59,12,-11,-6,-7,-14,
84296602652,-1,-49,-83,-26,-4,-4,8,17,
84296617876,-6,-21,13,-24,-15,1,6,6,
84296617876,-17,-11,-30,-70,-41,-14,-8,-11,
84296647676,11,10,27,31,19,13,14,7,
84296647676,-2,9,-1,9,14,-17,-23,-16,
84296662725,5,-11,-9,-8,-11,9,10,9,
84296662725,-18,15,52,-8,0,-11,-14,-17,
84296670363,-9,-27,-41,-23,-15,-6,-5,-5,
84296670363,-17,-1,31,-13,-22,-18,-15,-15,
84296707833,-7,-68,-89,-46,-17,-13,2,7,
84296707833,27,84,54,49,26,30,22,10,
84296715197,-24,-44,-49,-50,-37,-24,-21,-17,
84296715197,17,10,45,54,32,18,19,17,
84296722776,25,44,-23,-37,-27,-12,-5,9,
84296722776,-41,-50,13,16,-4,-2,-7,-17,
84296730359,-36,-32,-23,-4,-5,-1,-9,-25,
84296730359,62,29,8,9,13,15,27,35,
84296745149,-26,-7,9,33,18,-11,-13,-16,
84296745149,5,17,-9,0,0,1,0,1,
84296752895,-8,23,21,56,40,21,4,-4,
84296752895,-6,14,-64,-57,-33,-14,-14,-12,
84296775337,-12,-51,-60,-24,6,1,5,5,
84296775337,22,68,2,39,40,6,-4,-4,
84296790151,-20,-44,-38,-52,-38,-31,-20,-18,
84296790151,-16,-18,29,27,11,6,10,3,
84296812838,8,33,52,-8,-19,-21,-19,-14,
84296812838,20,3,-7,55,34,27,24,28,
84296827855,3,36,1,-12,-15,-15,-16,-11,
84296827855,-8,-16,2,-33,-9,0,-1,-2,
84296842897,2,-31,-27,-49,-32,5,11,11,
84296842897,-23,-46,-29,-24,-20,-10,-8,-12,
84296850160,32,28,86,93,59,31,17,14,
84296850160,3,36,-47,-61,-45,-16,-10,-6,
84296872701,-12,9,11,1,-15,-15,-10,-7,
84296872701,6,4,49,-12,-9,4,4,5,
84296887841,8,11,-38,-1,15,1,-3,2,
84296887841,-33,-20,-4,-5,-5,-9,-9,-12,
84296902804,24,38,-9,-9,-7,-2,-3,8,
84296902804,-18,-31,-22,-50,-39,-25,-17,-16,
84296925227,3,-7,-10,24,4,2,0,-1,
84296925227,1,-24,-25,-13,-3,-10,-7,0,
84296940160,26,16,-8,28,7,-4,-4,-1,
84296940160,-7,-44,-35,-49,-19,5,6,3,
84296962824,0,7,43,58,35,1,0,-2,
84296962824,-18,60,91,73,34,-9,-22,-27,
84296985380,13,17,-11,27,28,14,4,5,
84296985380,-16,-29,-13,-76,-69,-25,-17,-10,
84296992564,-30,-81,-52,-58,-9,-7,-4,-6,
84296992564,28,34,-83,74,42,36,25,17,
84297015254,-38,-85,-12,-20,-28,-11,-7,-16,
84297015254,41,85,97,72,46,14,9,10,
84297030205,5,2,6,-47,-20,-17,-10,-1,
84297030205,-24,-33,-2,-43,-27,-9,-9,-11,
84297052899,8,51,54,40,20,5,0,-2,
84297052899,-44,-46,-20,-98,-73,-41,-29,-27,
84297067587,-4,-13,-51,-2,0,0,4,3,
84297067587,37,43,93,35,18,11,14,21,
84297082632,19,43,31,51,22,17,9,7,
84297082632,-23,-38,-48,-86,-67,-26,-18,-16,
84297097650,-14,-17,58,80,55,12,5,-2,
84297097650,34,68,32,14,13,7,2,10,
84297105349,16,33,42,15,3,3,7,9,
84297105349,-29,-46,-27,-65,-27,-10,-9,-12,
84297120349,-11,-17,-20,-27,-18,-12,-15,-14,
84297120349,-3,10,22,9,-3,6,8,6,
84297127881,14,7,12,-3,-11,6,8,7,
84297127881,-15,6,17,-33,-16,-13,-13,-7,
84297135145,-9,-41,-87,-34,1,-5,-2,0,
84297135145,16,29,88,93,66,15,7,8,
84297165158,-7,6,48,38,10,0,-1,-4,
84297165158,6,-1,-68,-29,-6,-6,-6,-1,
84297180279,5,14,42,28,23,17,11,4,
84297180279,-18,-22,-29,-20,-10,-20,-17,-14,
84297187743,-10,-21,-36,-70,-38,-10,-1,-1,
84297187743,-11,-45,-36,-9,-4,9,12,6,
84297210317,-23,-19,-52,-73,-42,-21,-21,-19,
84297210317,-16,-24,-5,53,33,-10,-8,-5,
84297217727,-8,16,55,81,46,10,6,0,
84297217727,9,25,-13,-18,-7,-8,-13,-13,
84297240175,-14,-20,-33,-11,4,6,7,4,
84297240175,0,12,29,7,8,2,-3,-2,
84297247688,-19,-50,-22,-14,0,-5,-13,-9,
84297247688,3,29,16,-10,2,15,13,8,
84297277671,33,61,35,12,15,20,18,18,
84297277671,-29,-49,-52,-48,-43,-11,-1,-5,
84297292671,26,23,9,36,19,10,11,15,
84297292671,-33,-41,-20,13,1,-22,-27,-27,
84297307844,33,67,69,65,34,20,15,18,
84297307844,25,26,-42,-21,-3,-3,-3,2,
84297330217,-30,-60,-76,-81,-39,-27,-23,-16,
84297330217,16,3,63,81,52,33,27,21,
84297337623,24,68,73,35,18,13,16,12,
84297337623,-17,-7,-36,-39,-28,-16,-19,-13,
84297360425,1,-38,-18,31,0,-12,-6,1,
84297360425,21,31,41,-17,5,14,14,14,
84297367618,-24,-57,-128,-48,-25,-12,-5,-7,
84297367618,15,18,-1,10,30,13,7,7,
84297390136,-2,-19,-30,-1,13,6,4,3,
84297390136,38,37,-5,36,11,16,18,17,
84297412686,-14,-10,-7,-12,-19,-15,-8,-10,
84297412686,-8,-36,-3,-17,-7,-8,-3,-4,
84297435359,5,-9,-8,4,1,6,3,3,
84297435359,-18,-15,-11,-33,-35,-17,-16,-16,
84297450262,6,-60,-57,-22,-9,10,7,11,
84297450262,3,52,56,11,1,1,-2,-4,
84297465174,14,-14,-25,-60,-38,-10,0,6,
84297465174,38,76,94,97,51,28,28,26,
84297480376,-1,0,74,43,8,12,3,-4,
84297480376,-3,12,7,19,14,2,-4,-6,
84297502873,10,32,43,14,5,6,0,0,
84297502873,29,-28,-44,-17,-18,-9,1,16,
84297517619,-32,-27,-5,-42,-24,-21,-16,-16,
84297517619,-28,-68,-58,-20,-6,-3,1,-8,
84297532590,-2,28,-22,-27,-10,-9,-12,-7,
84297532590,-31,-45,11,-36,-22,-15,-14,-12,
84297547797,-4,17,21,5,-10,-6,-8,-4,
84297547797,-31,-51,-38,-71,-51,-26,-17,-12,
84297555348,-6,-42,-22,26,38,28,17,8,
84297555348,17,63,18,63,19,-5,-4,-3,
84297570295,-4,17,30,29,20,-9,-12,-12,
84297570295,-4,-26,-49,-55,-31,-1,2,1,
84297585350,7,7,-5,-21,-9,-2,3,4,
84297585350,-13,-16,-14,-13,-3,-4,-4,-9,
84297615213,14,2,-2,29,12,6,6,9,
84297615213,-18,-35,-65,-52,-24,-13,-14,-15,
