timestamp,C1,C2,C3,C4,C5,C6,C7,C8,
6910325629,5,38,38,27,25,-7,32,15,
6910325629,-3,-23,-43,20,51,22,5,-8,
6910340789,-8,-10,24,-66,77,6,-23,-13,
6910340789,4,24,20,93,21,-10,8,6,
6910348130,-1,-29,-53,-122,55,-21,-14,-2,
6910348130,-12,-10,-7,68,-75,1,-14,-8,
6910364652,1,-11,-12,63,14,-36,-8,2,
6910364652,6,23,24,-40,-90,5,15,7,
6910370729,1,-2,28,99,103,65,-2,-11,
6910370729,6,-19,-22,-81,-15,-14,-17,-2,
6910385582,6,49,14,-46,-128,4,45,10,
6910385582,-12,-38,-21,37,91,-8,-4,-4,
6910400628,-3,-18,-33,16,119,42,-10,-12,
6910400628,-6,-17,-28,20,-64,-39,-14,-4,
6910415886,8,18,4,-84,-29,-32,16,10,
6910415886,-3,28,1,-1,-51,-1,36,7,
6910423196,-8,-13,20,112,-52,66,-12,-11,
6910423196,-2,-10,23,20,16,-22,-33,-11,
6910438095,6,-16,-45,54,-44,18,3,5,
6910438095,-10,-23,-25,-37,42,4,-23,-11,
6910445804,6,13,22,-119,5,-56,10,8,
6910445804,7,35,41,87,-89,2,33,14,
6910462206,0,-13,5,99,120,29,-4,-4,
6910462206,-10,3,-6,-111,45,-39,2,-1,
6910477838,3,12,22,22,-26,11,23,5,
6910477838,-12,-20,-64,39,82,14,-29,-19,
6910483148,1,13,25,-43,-13,-35,5,4,
6910483148,-3,-17,-19,-59,67,22,12,7,
6910505878,-5,-28,-44,3,1,-5,-18,-7,
6910505878,5,21,42,9,-24,-4,4,1,
6910513474,2,19,25,60,-33,-1,4,1,
6910513474,-2,0,-13,-45,-6,6,1,-4,
6910528428,-8,-34,-72,14,-9,-27,-33,-14,
6910528428,3,10,0,-8,17,12,-4,6,
6910543313,2,25,36,53,-100,-3,26,13,
6910543313,-2,-6,-11,47,97,16,-4,-9,
6910558121,1,-18,-33,-14,73,3,-23,-9,
6910558121,6,26,42,-24,-110,-2,28,7,
6910566180,-6,-7,-28,-104,-47,6,-2,-2,
6910566180,-5,-8,18,80,24,4,-32,-11,
6910580949,-1,-16,31,75,67,3,12,2,
6910580949,-12,-25,-34,7,55,21,-27,-20,
6910596137,6,40,36,-34,-68,-5,8,5,
6910596137,4,-23,-4,-10,-54,-23,16,13,
6910603114,-12,-25,-39,4,36,6,-41,-16,
6910603114,12,41,44,34,1,5,15,12,
6910625617,-1,-18,-26,-7,46,1,3,1,
6910625617,-11,-28,15,16,29,16,-33,-16,
6910634920,2,10,-1,-45,-104,-17,27,12,
6910634920,-7,9,13,-31,-52,-14,-2,-5,
6910655616,7,-27,-42,17,17,5,2,-2,
6910655616,-13,-19,-16,-33,-38,-17,-28,-10,
6910670828,11,46,27,-8,48,6,13,11,
6910670828,-6,-27,-27,-45,-122,-21,11,3,
6910685722,-8,0,1,-6,94,-11,-20,-9,
6910685722,-1,-8,-22,-82,-125,-59,15,4,
6910693305,-8,-2,3,48,96,49,4,-4,
6910693305,-3,-31,-19,-25,82,27,-18,-11,
6910708147,0,10,21,20,-50,-26,-7,-3,
6910708147,-7,16,41,22,42,-22,5,-2,
6910723152,-8,-29,-54,3,-128,-6,4,0,
6910723152,-4,-7,6,15,63,-26,-10,-7,
6910738072,2,4,-4,43,-11,-16,-9,0,
6910738072,-4,50,30,-59,-28,-43,32,10,
6910745805,3,-13,-57,38,-82,30,22,7,
6910745805,-11,-35,-16,34,96,29,-49,-29,
6910760640,-14,-33,-7,-57,-42,-43,5,-6,
6910760640,2,7,-5,69,68,-1,-11,-1,
6910783062,-5,-25,-8,-37,-58,23,-25,-14,
6910783062,3,15,7,10,-33,-15,-5,0,
6910790575,6,6,-11,-39,-93,-9,14,8,
6910790575,2,-13,-48,-35,14,4,12,4,
6910805562,-6,9,18,19,116,-10,6,-3,
6910805562,1,-4,0,93,-7,-9,-8,-1,
6910813269,-6,-21,41,-49,56,10,-31,-11,
6910813269,-1,12,-5,14,-13,0,9,4,
6910828056,7,20,10,69,-48,-5,4,2,
6910828056,-7,-8,-11,-55,-120,-20,0,0,
6910843125,5,-15,5,2,70,7,-11,-3,
6910843125,-1,8,12,-7,-4,-9,-3,-2,
6910858101,12,33,34,-27,-19,-31,28,17,
6910858101,-1,-22,-6,-27,-95,-1,7,1,
6910865714,-14,-16,-49,13,69,20,-21,-15,
6910865714,4,19,18,39,57,19,13,4,
6910880606,-1,-23,-70,-9,-14,-12,-2,0,
6910880606,-7,-5,6,13,32,6,-28,-11,
6910903306,1,9,26,-70,-68,-38,9,7,
6910903306,-9,-18,-28,66,63,15,10,2,
6910910546,9,25,40,-50,5,11,9,0,
6910910546,-4,-30,-24,10,-15,-15,-17,-6,
6910925609,-4,-7,-21,87,37,23,-16,-10,
6910925609,7,32,24,-78,-59,-5,7,6,
6910940578,-3,10,-12,20,-27,4,24,7,
6910940578,-3,-9,-12,13,82,7,6,-4,
6910955661,9,32,48,-9,-54,-22,0,5,
6910955661,-3,25,10,-12,36,10,11,5,
6910970758,0,39,-2,-28,19,-30,21,7,
6910970758,11,7,-12,9,4,30,39,19,
6910985643,8,30,68,93,40,-23,7,9,
6910985643,14,47,28,-128,-125,-23,38,17,
6911000647,5,7,1,37,-54,5,-1,2,
6911000647,-11,-31,-22,-5,-119,34,4,-6,
6911023174,8,44,76,69,-28,-3,9,1,
6911023174,2,-41,-56,87,105,9,-40,-11,
6911030583,-4,-29,-25,-54,-17,-14,-41,-9,
6911030583,10,39,47,-22,-31,-16,23,16,
6911053209,-1,15,-26,-73,-109,-32,16,8,
6911053209,7,22,13,-71,-43,24,33,13,
6911060723,-21,-15,24,111,127,28,-19,-17,
6911060723,0,-31,-22,-95,-82,-27,-13,-8,
6911075567,2,-11,-14,-13,28,11,0,-1,
6911075567,-20,-50,-28,117,127,6,-60,-28,
6911090564,3,8,-8,-31,-44,13,25,7,
6911090564,-17,-44,-55,13,-42,-38,-37,-17,
6911105519,-5,4,10,-37,-23,-3,10,4,
6911105519,7,25,-18,-47,38,7,29,11,
6911120742,4,-10,10,24,53,24,7,-1,
6911120742,0,-2,-54,-11,65,6,-7,-4,
6911135527,-1,11,60,-20,44,14,-3,2,
6911135527,0,-22,-50,18,6,-14,-6,1,
6911143025,-9,-25,-47,-43,-38,-38,-12,-6,
6911143025,7,51,71,-7,-74,0,45,16,
6911173087,-4,-9,-16,24,99,26,12,-6,
6911173087,-1,-2,15,22,65,-9,-27,-11,
6911180565,3,-16,-75,13,34,18,-19,-5,
6911180565,3,-1,40,42,69,-21,-13,-5,
6911195636,0,-12,6,23,69,-18,-13,0,
6911195636,-9,-2,-8,46,-44,-9,-15,-2,
6911210786,4,50,54,-43,-76,-11,26,8,
6911210786,-7,-55,-77,22,-17,9,1,-5,
6911218055,4,3,36,35,-5,5,-33,-2,
6911218055,0,37,59,23,97,27,5,-3,
6911225756,-5,-57,-103,-56,-66,-19,-12,-7,
6911225756,0,1,40,57,-46,3,-5,-1,
6911240581,1,20,6,-59,-17,-16,27,5,
6911240581,3,3,2,73,24,18,5,0,
6911248079,2,0,31,-31,-13,-2,-20,-8,
6911248079,4,27,43,-34,-73,-4,-4,0,
6911263251,2,32,33,-75,-65,1,19,2,
6911263251,-6,-36,-46,43,61,17,-6,-6,
6911278232,-6,-23,-1,65,63,9,-35,-13,
6911278232,8,37,65,1,63,-10,9,6,
6911285797,-8,-13,-44,-19,-11,-21,-5,-2,
6911285797,6,24,23,-26,-23,6,-6,1,
6911300671,5,12,-11,17,-20,7,26,6,
6911300671,-12,-51,-67,-17,29,-8,-39,-19,
6911308000,16,68,96,-64,6,-27,19,14,
6911308000,0,9,7,89,-72,9,31,6,
6911330634,8,-8,11,85,-5,4,25,11,
6911330634,-19,-35,-40,-105,-10,-30,-42,-17,
6911353229,11,47,39,-30,-85,-19,18,14,
6911353229,-3,-3,-25,6,-58,-2,27,5,
6911360724,-12,-22,-12,31,78,35,-17,-14,
6911360724,-1,38,63,15,99,8,12,-1,
6911390538,2,-10,-28,10,-25,-25,-2,0,
6911390538,2,-2,16,-28,46,-10,-14,-7,
6911405511,-17,0,20,31,5,-3,7,-6,
6911405511,-3,-13,-25,-7,-2,-5,-11,-5,
6911413003,6,42,50,117,3,37,23,9,
6911413003,-10,-64,-42,-101,9,-8,-1,-6,
6911420737,-4,-2,14,35,-12,-1,-45,-16,
6911420737,5,30,35,-14,-86,-10,16,5,
6911428277,2,-34,-60,40,95,10,9,3,
6911428277,-13,-39,-67,-54,-61,-27,-31,-11,
6911435679,10,52,40,-60,-15,2,21,12,
6911435679,10,-7,-9,-8,21,2,9,6,
6911450635,-5,2,17,-24,-34,-16,1,0,
6911450635,1,38,-4,33,-5,-6,41,16,
6911465562,0,-22,-2,1,45,20,1,-2,
6911465562,-6,-32,8,58,105,5,-55,-21,
6911473072,2,7,-3,51,-11,-13,-8,1,
6911473072,15,26,25,-64,32,6,27,11,
6911495507,-1,-13,-42,-94,-66,-5,-11,-4,
6911495507,-2,10,-1,-38,21,3,14,1,
6911510573,-1,3,-2,58,-16,31,10,-1,
6911510573,-4,-43,-68,-28,72,28,-22,-13,
6911525769,-1,16,57,88,-30,-12,-21,-6,
6911525769,5,46,-8,-20,18,2,36,12,
6911533215,-5,-39,-13,-122,-111,-28,6,3,
6911533215,-8,-24,-9,1,-25,-5,-33,-9,
6911540587,5,32,83,36,-23,14,21,8,
6911540587,-9,-11,-89,-33,-16,-17,16,0,
6911548271,-6,-25,-47,-27,95,-5,-2,0,
6911548271,16,37,27,12,-54,11,2,9,
6911563218,-2,-31,-45,35,32,-2,-13,-5,
6911563218,0,7,-11,-97,-58,-11,0,1,
6911578301,2,14,-16,-93,-81,-19,28,11,
6911578301,12,36,26,58,-8,6,26,11,
6911585579,-9,10,54,3,9,9,3,-8,
6911585579,-17,-65,-91,-27,26,-13,-23,-15,
6911608206,2,7,4,-101,-97,-10,-2,1,
6911608206,0,-2,34,24,55,26,1,0,
6911615635,4,14,32,57,51,7,-23,-8,
6911615635,3,17,33,37,55,-3,2,6,
6911630695,1,7,0,-71,10,-3,15,4,
6911630695,2,9,31,-4,-51,-2,-18,-5,
6911653041,6,3,1,19,16,-5,-6,2,
6911653041,-2,18,-4,-20,-83,-7,13,1,
6911660740,-2,-27,-30,12,51,20,5,2,
6911660740,-8,-13,4,1,28,5,-17,-15,
6911668135,11,36,4,31,-42,3,14,9,
6911668135,0,-11,-7,-4,21,-8,-6,0,
6911675793,-11,-38,-41,-52,1,-17,-27,-9,
6911675793,-3,9,14,18,-10,-15,-7,-2,
6911690540,5,30,22,-26,28,-17,-3,3,
6911690540,1,-2,33,8,-22,4,2,3,
6911705538,-7,-8,1,81,-42,-20,4,-4,
6911705538,-1,16,11,-20,-7,-10,-9,-2,
6911728067,1,1,45,54,21,-9,-4,-3,
6911728067,-9,-23,-19,-86,9,-3,-15,-8,
6911735535,2,-1,-18,58,32,22,-23,-3,
6911735535,1,21,24,-24,-3,-2,9,4,
6911750612,-3,5,20,-115,-16,-23,4,-5,
6911750612,-2,1,-9,112,-23,34,13,1,
6911772997,-3,-25,-20,-34,123,26,-24,-14,
6911772997,2,4,33,33,-18,-31,-25,-3,
6911780560,6,13,-22,-11,-89,-8,16,8,
6911780560,-8,-5,-14,-22,21,-10,2,-1,
6911788157,0,-2,25,-50,-11,1,-2,-5,
6911788157,-12,-17,-63,-19,-31,-26,4,-3,
6911795752,3,2,42,58,91,13,-10,-1,
6911795752,-5,-2,-8,16,-33,7,-5,-7,
6911810581,-9,-29,-10,27,-1,-17,-42,-13,
6911810581,15,26,32,22,37,8,10,8,
6911818320,-1,3,-4,-56,-5,-11,-3,-3,
6911818320,-1,24,24,41,-65,-13,28,2,
6911825523,1,-31,-35,-4,50,-6,4,-1,
6911825523,-19,-36,-1,26,44,-11,-42,-20,
6911840731,9,37,40,-18,-48,-13,4,4,
6911840731,-3,7,0,-11,-16,12,36,8,
6911848057,-1,6,-16,4,27,27,-9,-7,
6911848057,3,-8,-7,16,40,-8,-15,-4,
6911863046,1,5,34,7,-66,-6,-7,-2,
6911863046,-5,-14,-9,-34,-31,-14,6,2,
6911885787,-4,8,19,-14,-15,-9,-10,-2,
6911885787,5,43,51,44,68,-9,14,3,
6911893107,-1,-16,-27,-38,-105,13,25,5,
6911893107,-18,-38,-66,48,106,21,-36,-16,
6911908096,3,-13,-2,-49,-13,-20,-21,-3,
6911908096,12,6,33,52,23,13,-2,6,
6911915562,-7,26,10,32,2,-35,24,2,
6911915562,13,19,-15,-128,13,8,24,13,
6911930730,8,13,-1,74,20,50,5,2,
6911930730,2,2,13,-40,2,-6,22,5,
6911945699,-12,-11,-10,64,-65,-10,-12,-8,
6911945699,4,12,11,-77,-23,16,5,5,
6911960594,-5,-26,-20,-43,104,11,-10,-10,
6911960594,5,-2,30,43,-111,-19,-12,-2,
6911968106,8,17,-23,-39,-11,-12,-4,6,
6911968106,-5,-15,9,37,-45,-13,-1,-1,
6911983153,-10,-12,-41,5,80,-3,-25,-17,
6911983153,7,-19,17,-30,-30,-5,-8,1,
6912005535,-3,-2,-10,28,11,-1,-5,-1,
6912005535,3,23,30,-18,-86,0,22,9,
6912013280,-5,-11,-2,-39,71,11,-3,1,
6912013280,-1,22,-3,2,68,-32,2,0,
6912028199,3,1,-15,106,-63,30,9,4,
6912028199,0,-14,11,-19,127,24,-29,-12,
6912035516,-2,-8,-18,-89,-70,-61,-9,3,
6912035516,7,15,13,60,-34,32,20,9,
6912050724,5,6,0,-31,-61,-13,34,10,
6912050724,-24,-27,-73,-31,24,-23,-18,-16,
6912065737,4,-26,-22,-48,62,22,-12,5,
6912065737,-1,20,23,97,-39,8,12,-2,
6912080613,-3,-27,-45,-56,-3,-8,-4,1,
6912080613,-4,-20,16,-57,50,-25,-32,-7,
6912088181,9,33,11,-36,-47,-2,12,10,
6912088181,6,12,1,85,36,31,31,5,
6912103178,9,4,35,40,112,21,2,1,
6912103178,-7,-15,-14,26,80,-5,-41,-18,
6912125681,6,36,57,5,-58,-5,27,9,
6912125681,-1,-20,-62,-55,-6,-10,15,3,
6912133256,-12,-24,-29,62,-32,2,-36,-14,
6912133256,11,24,39,-33,-128,-12,1,9,
6912148272,1,10,9,22,47,5,12,6,
6912148272,-1,2,-19,-13,-27,20,12,4,
6912155766,0,-3,-3,-14,46,10,8,0,
6912155766,-6,-38,-32,14,0,-14,-28,-11,
6912185589,-1,0,1,-46,0,7,-7,-4,
6912185589,-3,-27,-27,-1,-54,-26,-10,-1,
6912200779,-11,4,12,-4,-105,4,9,-6,
6912200779,-3,-22,10,40,110,11,-25,-6,
6912215551,0,4,8,13,10,11,-6,-3,
6912215551,-8,-32,-85,-4,102,2,-2,1,
6912222989,-7,-4,-10,-38,-42,-7,-14,-6,
6912222989,6,22,5,-52,-12,-2,11,5,
6912230574,6,29,31,-3,63,-3,32,9,
6912230574,-10,-43,-9,45,28,-2,-13,-15,
6912253052,-8,-36,-56,30,32,4,-31,-12,
6912253052,13,55,21,-93,-67,-4,39,16,
6912268270,-7,-41,-78,90,-14,-8,-12,-5,
6912268270,-7,-25,50,75,8,-11,-50,-21,
6912275686,5,27,34,-40,25,2,11,4,
6912275686,5,27,22,-5,-16,3,22,8,
6912290589,-1,-12,21,-28,12,-15,-24,-5,
6912290589,-11,-34,-50,-58,-88,-18,-8,-4,
6912305613,2,10,11,53,22,7,13,1,
6912305613,-1,22,44,-87,-88,-4,18,2,
6912320692,3,1,33,79,102,10,-14,-7,
6912320692,-5,-17,-15,-11,49,-12,-35,-11,
6912328024,3,20,-11,12,-105,-15,21,7,
6912328024,-5,-33,-53,-33,40,-17,3,6,
6912343161,-2,-17,-17,13,48,13,-17,-7,
6912343161,2,15,0,-41,-35,8,8,3,
6912350621,0,-19,-5,36,9,-3,6,3,
6912350621,5,35,29,6,29,5,5,2,
6912373030,-6,-4,-3,24,16,4,-12,-9,
6912373030,-1,-24,-48,-34,-55,-8,-7,-1,
6912388004,8,17,0,-62,-24,3,1,8,
6912388004,4,43,44,6,-89,1,44,12,
6912395641,-6,-55,-68,9,60,0,-17,-9,
6912395641,-5,5,19,78,105,8,-30,-9,
6912418013,-8,14,61,57,-31,-11,-14,-9,
6912418013,4,3,-27,54,110,-10,24,5,
6912433283,10,18,10,-19,56,-7,11,5,
6912433283,-1,-18,-24,17,15,5,-15,-6,
6912448085,-11,-1,13,12,46,-5,-19,-8,
6912448085,-6,-26,-30,-124,-122,-32,0,2,
6912455537,-2,13,13,11,-51,-6,13,5,
6912455537,1,32,39,75,-41,12,24,2,
6912470729,9,-8,27,69,46,7,0,0,
6912470729,-2,-8,-45,-128,-7,-5,-26,-6,
6912485715,-10,-5,2,-119,-16,6,-2,-5,
6912485715,9,-4,-9,1,17,0,-7,3,
6912500531,3,8,-35,-86,-100,-11,22,9,
6912500531,-8,-15,10,70,-83,-37,6,-2,
6912508081,-4,22,38,45,71,27,-11,-6,
6912508081,-2,-10,11,76,-17,13,-7,-9,
6912523098,-12,-37,-31,8,77,3,-37,-18,
6912523098,4,15,11,18,22,14,3,8,
6912530533,0,-6,-46,-25,38,-39,5,4,
6912530533,-7,-6,18,-47,-98,-2,-10,-5,
6912545621,-5,-28,-67,-39,-103,-36,-15,-3,
6912545621,2,28,69,53,-13,24,25,7,
6912560703,-2,-17,-70,34,61,10,-5,-4,
6912560703,1,3,12,-34,34,-1,-22,-7,
6912568182,-4,-45,-19,-35,-71,-1,-27,-8,
6912568182,-5,10,13,6,40,-10,-19,-9,
6912583292,16,48,57,67,22,-2,48,16,
6912583292,-21,-48,-68,-81,-27,-16,-16,-13,
6912590780,-1,-15,-22,-15,-19,0,-13,-3,
6912590780,-2,1,-1,-9,-106,2,14,4,
6912613159,6,29,44,-46,-69,6,45,10,
6912613159,-12,-32,-45,32,64,-8,-34,-12,
6912643084,4,-18,18,33,41,4,-37,-8,
6912643084,5,8,-1,9,-70,-17,-2,3,
6912650730,-1,15,2,11,-31,-10,24,7,
6912650730,-9,-12,-27,-56,66,21,0,-3,
6912665566,-19,-20,-3,39,55,8,-36,-21,
6912665566,9,15,-13,-112,-38,-26,20,12,
6912680620,-3,-13,6,65,68,-1,-48,-15,
6912680620,9,-9,-25,-11,-3,-7,-6,5,
6912688030,-8,-13,-11,-84,13,1,-4,-7,
6912688030,-7,-19,-1,25,4,4,-10,-7,
6912703032,4,19,9,-30,-3,-1,-3,4,
6912703032,-2,10,38,-8,14,-14,-9,-6,
6912718021,0,-17,-31,37,32,18,-5,-1,
6912718021,12,24,12,-18,29,-36,6,6,
6912733229,4,3,-10,-37,-38,-12,2,6,
6912733229,0,19,36,82,71,24,19,2,
6912748199,-2,-26,-22,-61,-20,-19,-10,-7,
6912748199,-5,1,11,14,26,7,-8,-6,
6912755555,7,20,13,-1,20,23,14,1,
6912755555,-3,-22,-26,-47,-77,-29,-14,-6,
6912763209,-5,-14,4,67,10,-11,-15,-2,
6912763209,-9,-12,-37,-97,-13,11,-5,-7,
6912770667,7,44,77,98,43,-4,20,7,
6912770667,2,-19,-13,0,-45,-14,-6,-1,
6912785792,-10,-21,-7,19,90,20,2,-8,
6912785792,2,19,59,-4,75,1,-7,-3,
6912800539,-5,-13,7,-60,-45,-25,-18,-7,
6912800539,-4,-18,0,71,69,-4,-13,-6,
6912808166,3,-4,-39,-32,-60,1,5,8,
6912808166,-3,6,5,67,-9,18,1,-3,
6912823015,5,31,-3,-59,-41,2,30,7,
6912823015,-1,-24,-35,24,-43,-39,-8,0,
6912838115,-9,2,37,2,1,-13,-21,-12,
6912838115,-4,-20,-5,-61,-37,24,-14,-8,
6912860721,5,25,37,68,-4,-4,8,5,
6912860721,-3,-26,-65,33,36,-5,-3,-2,
6912883207,-3,1,14,-79,38,14,-2,-2,
6912883207,-6,-13,4,9,19,7,-7,-9,
6912890678,8,35,-13,5,-55,-23,24,14,
6912890678,-2,20,55,-34,-31,0,21,2,
6912898046,-9,-30,1,127,55,5,-25,-15,
6912898046,0,-26,-45,-27,76,5,-28,-7,
6912905586,8,16,-4,-95,29,-8,8,12,
6912905586,7,8,5,-18,-59,-5,17,4,
6912935704,-9,-23,-24,-83,-70,-25,-16,-6,
6912935704,-3,-10,-2,35,119,25,-18,-8,
6912958218,3,-3,-6,1,-113,1,-7,-1,
6912958218,7,11,15,-27,45,12,4,3,
6912965689,-2,-5,-24,45,-58,-10,7,-3,
6912965689,-6,17,-5,-73,-50,-9,4,0,
6912980718,0,4,11,-6,6,-13,1,1,
6912980718,4,2,-15,-51,-75,-9,20,7,
6912995733,-19,-18,-39,-3,99,23,-19,-13,
6912995733,-4,-4,4,-1,26,5,-13,-6,
6913010677,4,18,53,36,-66,-28,18,6,
6913010677,-1,7,36,-12,-19,-15,9,-3,
6913025677,-11,-37,-76,-15,79,23,-15,-13,
6913025677,4,19,12,57,-74,15,12,5,
6913040538,-8,4,13,5,-22,-16,-2,-8,
6913040538,7,-4,4,-18,70,21,10,9,
6913055742,0,-13,-26,-79,-44,-2,-1,1,
6913055742,-6,7,-1,-17,-42,-35,-9,-2,
6913063196,9,30,10,53,-11,12,38,10,
6913063196,-8,-15,-34,-31,38,12,11,-1,
6913085686,-3,12,31,14,26,7,3,-3,
6913085686,-1,17,37,88,35,-8,14,1,
