timestamp,C1,C2,C3,C4,C5,C6,C7,C8,
27597054814,-34,96,97,-21,10,-15,-31,-50,
27597054814,5,34,84,109,98,-34,-9,-24,
27597062164,48,-16,-94,-102,-43,7,-2,14,
27597062164,16,-51,40,-100,-65,41,22,48,
27597069554,-69,-106,-68,-56,-31,11,-20,-24,
27597069554,89,97,105,55,16,-6,26,47,
27597077249,-71,-61,-58,-52,6,-11,-18,-26,
27597077249,9,-75,-30,127,15,21,29,24,
27597092422,9,59,13,-109,-37,-17,-10,-16,
27597092422,-23,-74,-12,-123,-3,8,8,15,
27597106975,69,79,113,100,-31,20,10,20,
27597106975,-23,-25,-110,-90,-32,-17,-12,-8,
27597129734,25,38,104,127,28,41,35,23,
27597129734,-124,-100,-128,39,-36,-32,-46,-90,
27597136989,107,127,110,-88,21,-16,22,11,
27597136989,-9,25,-60,1,64,-47,-35,-22,
27597160906,9,-111,-125,122,103,24,14,63,
27597160906,103,116,62,-128,-113,20,41,74,
27597167210,-105,-115,-28,78,-18,19,-28,-65,
27597167210,-13,34,-13,127,62,-37,-16,-34,
27597182256,-53,45,110,-30,-20,-32,-24,-37,
27597182256,41,14,-42,-55,-10,24,15,22,
27597189782,-21,-65,-5,127,10,-37,-30,-23,
27597189782,-43,-10,46,-111,-51,7,-1,5,
27597214265,-40,84,17,79,52,-26,-15,-38,
27597214265,32,-25,-11,8,-11,14,9,25,
27597227062,-26,-47,-84,-19,11,6,-8,-7,
27597227062,-53,-61,29,-20,-85,-10,-17,-44,
27597234443,127,74,35,66,59,-21,35,58,
27597234443,-46,-97,-48,71,30,4,-19,11,
27597249672,-21,114,-22,-128,-98,-16,-12,-13,
27597249672,2,-44,39,25,-69,8,-5,-5,
27597257148,-23,-29,-95,43,94,50,26,30,
27597257148,23,27,127,-63,-97,15,22,4,
27597272883,-60,-28,-38,-63,29,4,-20,-27,
27597272883,-29,-52,-72,-49,-27,-11,-12,-39,
27597287060,72,1,-18,16,42,3,18,17,
27597287060,-36,78,108,88,19,-45,-29,-63,
27597294693,-1,67,-70,-65,-18,32,23,21,
27597294693,-19,-16,-95,19,48,-30,-37,-31,
27597309633,29,27,87,-1,-73,15,43,62,
27597309633,-3,-86,-18,54,24,7,-23,-1,
27597320025,-8,-86,-20,-23,8,31,3,11,
27597320025,18,85,53,63,28,-12,-6,-31,
27597324984,22,-98,-88,-54,-119,9,16,36,
27597324984,15,-1,20,35,-88,-30,-16,-29,
27597339500,-17,116,127,1,58,-79,-19,-45,
27597339500,-9,-93,-116,-24,-7,30,8,24,
27597347052,-27,-100,-74,-20,10,7,-10,7,
27597347052,79,35,-62,121,69,28,54,77,
27597362011,-24,44,63,-100,-103,-29,-45,-56,
27597362011,-63,-33,-48,-40,-66,-3,-10,-35,
27597377030,29,-53,-4,9,3,-22,0,11,
27597377030,-4,89,87,-60,-39,1,24,-10,
27597399704,-21,-111,-97,-87,-48,58,10,66,
27597399704,9,71,36,-57,19,44,29,25,
27597408301,-15,56,-4,-42,-41,-22,-37,-42,
27597408301,-48,-25,35,57,76,8,3,-2,
27597422323,6,31,22,3,-54,-16,5,-14,
27597422323,-20,-87,-94,-34,22,-12,-24,-14,
27597429463,7,-60,-25,5,-3,-75,-45,-33,
27597429463,24,-56,-52,92,49,57,32,81,
27597444522,1,127,114,32,-25,16,0,-49,
27597444522,-28,-36,-56,-108,-128,-78,-45,-60,
27597459471,-10,13,54,66,65,39,24,17,
27597459471,-7,55,-22,-49,-33,-59,-44,-38,
27597466986,19,64,59,87,101,31,22,16,
27597466986,-58,-54,-31,-8,-24,-10,3,-8,
27597482080,-27,-37,-77,34,19,39,14,26,
27597482080,-15,-58,-30,-11,-64,-10,-16,-22,
27597489419,-28,-14,-65,-43,-6,1,3,-6,
27597489419,70,111,105,111,71,-29,-5,-16,
27597504493,4,-96,-77,-10,-29,34,14,41,
27597504493,-19,1,79,52,67,-4,-16,9,
27597526979,29,76,86,19,-15,-15,19,-13,
27597526979,-1,-46,-122,-25,-11,16,1,12,
27597534394,-24,-41,17,-100,-21,44,12,9,
27597534394,34,45,5,12,-20,8,7,9,
27597557098,23,-20,127,28,29,-18,0,6,
27597557098,-62,22,-52,-67,36,-40,-38,-80,
27597572113,81,-26,-96,85,5,-23,18,52,
27597572113,-38,-90,-99,-31,-3,44,0,43,
27597602043,71,78,48,-13,33,15,30,30,
27597602043,-90,-121,-88,127,117,-5,-21,-25,
27597609591,21,127,127,-83,-121,-39,-9,-35,
27597609591,49,-47,-28,-92,-60,19,18,27,
27597616954,-33,-82,-95,-106,-54,12,-18,6,
27597616954,127,127,127,88,82,32,63,70,
27597624473,-105,-128,-128,-105,-67,-30,-53,-23,
27597624473,-3,-63,-63,-43,30,48,24,44,
27597639651,6,-5,-39,11,31,-11,-9,-25,
27597639651,45,-19,-70,-128,-128,-29,4,15,
27597654371,-41,1,24,2,-31,-2,-6,-20,
27597654371,-41,-29,53,49,-24,30,0,5,
27597677144,0,-69,-59,18,34,23,2,24,
27597677144,10,-35,37,103,104,23,10,34,
27597684444,27,25,-1,-107,-119,16,11,0,
27597684444,-76,3,127,127,66,-5,-4,-36,
27597707120,-6,-58,-89,-91,-104,53,44,50,
27597707120,12,36,30,67,46,-8,-12,-3,
27597714461,24,-106,-37,-128,-98,12,8,20,
27597714461,-12,73,101,51,70,1,12,0,
27597722069,-32,4,-16,13,14,-20,-23,-22,
27597722069,-13,-82,-128,-50,-38,10,-11,6,
27597729647,-27,-49,-82,95,35,-1,7,-8,
27597729647,48,95,127,-110,-115,-16,-9,-43,
27597751982,10,-37,69,113,111,15,17,22,
27597751982,-27,-59,-60,-41,-30,-7,-2,1,
27597782163,14,25,-12,-102,-81,-43,-21,-28,
27597782163,58,127,117,51,21,-22,14,-28,
27597797109,-54,-121,-48,-18,5,1,-12,28,
27597797109,50,4,-84,-77,60,63,23,62,
27597827010,15,-81,14,-57,-23,22,3,45,
27597827010,-80,-57,15,87,6,18,1,-6,
27597841972,-56,-93,19,125,41,-17,-21,-54,
27597841972,-23,-62,-128,-128,-128,-13,-6,-9,
27597849641,79,127,53,-50,31,-34,13,11,
27597849641,-28,29,77,81,65,13,-7,-19,
27597871908,21,62,10,127,73,22,8,4,
27597871908,-24,-22,-82,-9,-56,9,33,26,
27597887000,-7,77,50,99,124,7,7,-17,
27597887000,-28,114,92,30,27,-27,-46,-49,
27597894640,-65,88,48,-58,-36,-43,-23,-55,
27597894640,20,-14,-35,39,41,30,30,29,
27597909443,19,-84,-128,-73,-57,-40,-14,11,
27597909443,4,-82,-89,-85,-62,13,-6,2,
27597932094,8,-20,-62,82,47,23,11,-3,
27597932094,99,15,-30,-54,33,49,66,71,
27597954617,-50,-28,-59,23,-3,-22,-25,-18,
27597954617,58,80,91,4,-84,-2,22,24,
27597961936,-3,-128,-128,-128,-63,16,-4,23,
27597961936,-1,1,35,127,123,29,30,26,
27597977058,17,56,66,-128,-52,-30,-37,-34,
27597977058,20,-43,-14,40,-11,20,28,39,
27597999573,50,112,96,82,-6,-25,22,30,
27597999573,40,-18,-17,2,-31,-44,-35,-11,
27598022151,-46,-128,-128,5,-9,55,36,64,
27598022151,-22,50,84,-105,13,2,4,-17,
27598036978,-19,-21,-22,101,25,-15,-9,-42,
27598036978,0,42,16,-115,-34,-7,-10,-31,
27598044588,16,127,113,41,43,-44,-18,-29,
27598044588,-56,-128,-128,-79,10,16,-20,-32,
27598059638,18,127,94,36,-35,-40,-14,-28,
27598059638,43,-128,-105,42,-19,49,40,95,
27598066931,-8,41,-24,-6,14,-4,-9,-7,
27598066931,-56,36,64,112,99,-59,-33,-67,
27598082111,23,-7,19,82,72,40,35,20,
27598082111,-23,36,23,5,47,-11,-10,-33,
27598097198,-4,23,38,29,-32,-56,-36,-21,
27598097198,-52,4,39,77,115,10,28,44,
27598111896,47,25,-19,-16,4,-22,-13,10,
27598111896,-61,-91,-118,-44,18,20,-16,5,
27598127058,-95,-128,-128,-107,-45,4,-30,-35,
27598127058,5,2,93,117,127,31,15,10,
27598134588,56,52,11,-107,-101,-46,-16,-27,
27598134588,-5,-83,-79,20,51,4,5,31,
27598157095,-5,-18,33,-35,38,0,7,3,
27598157095,-14,50,-121,-16,-113,-31,-32,-60,
27598179609,-16,-8,-108,28,-18,-40,-31,-31,
27598179609,-10,-50,-64,79,57,39,49,56,
27598187149,106,26,-54,-38,35,72,41,83,
27598187149,-128,-128,-128,-80,-115,0,-54,-65,
27598194537,26,40,42,-29,5,-14,11,-5,
27598194537,41,46,39,-29,-52,-37,-7,-8,
27598201931,-35,-22,-56,126,15,32,21,8,
27598201931,-37,71,53,127,116,-35,-15,-30,
27598209635,63,26,-18,-111,-68,3,9,-19,
27598209635,-8,-22,-1,-49,-73,-19,-8,18,
27598216909,-28,-33,2,122,14,-7,-28,-27,
27598216909,20,-68,-22,-66,10,39,23,59,
27598224605,-21,127,127,127,121,-6,-22,-57,
27598224605,7,110,-8,-97,32,-50,-3,-10,
27598232040,-7,-108,-76,83,27,-22,-19,-8,
27598232040,71,48,-54,-61,-107,21,32,36,
27598239418,-76,-128,-68,-64,-35,-23,-26,-17,
27598239418,95,84,92,51,13,16,18,41,
27598247136,-55,16,27,-10,81,8,1,-9,
27598247136,-25,-43,-80,-17,-71,-3,-14,-48,
27598262215,15,-14,-22,-11,84,41,47,76,
27598262215,-31,9,26,-128,-92,-55,-48,-82,
27598269413,43,33,87,17,-30,17,25,42,
27598269413,-24,-62,-19,94,-1,-29,-24,-18,
27598284545,59,-59,16,-79,-21,69,43,55,
27598284545,-2,76,100,94,94,-21,-17,-57,
27598299535,-67,-44,-28,58,75,-57,-34,-53,
27598299535,43,-17,-63,50,73,9,6,59,
27598322097,-18,88,67,42,-60,25,0,10,
27598322097,-13,-81,-103,38,49,31,0,-2,
27598329547,5,127,95,-88,-61,-35,-7,-21,
27598329547,12,-58,-83,-38,7,-29,-16,-29,
27598351980,-1,-45,58,-19,-38,0,0,4,
27598351980,-32,67,76,31,46,9,2,-7,
27598359503,68,-53,-13,-99,-78,10,15,19,
27598359503,-4,-36,64,-23,37,6,11,36,
27598381922,-5,-42,3,-42,47,8,11,5,
27598381922,74,17,-46,12,-33,-21,0,24,
27598397020,-89,7,-53,45,-7,-56,-63,-124,
27598397020,70,-27,6,75,72,31,14,59,
27598404604,52,8,75,47,33,33,28,64,
27598404604,-25,-123,-117,-90,-96,23,1,18,
27598412089,-13,103,69,127,23,-15,19,-1,
27598412089,-28,-106,-104,-77,-32,-41,-18,-53,
27598419500,22,54,-117,19,15,-13,4,-25,
27598419500,-71,-110,-50,-64,-21,16,-15,-1,
27598427088,10,0,-83,5,43,-22,-9,15,
27598427088,-26,-115,-128,-69,-69,-13,-14,7,
27598456987,27,87,97,92,75,16,11,19,
27598456987,-19,30,-48,-36,-19,-6,4,-6,
27598464437,-34,-6,-88,-44,-14,1,-22,-49,
27598464437,109,127,127,89,94,-12,37,29,
27598486882,-43,-122,-39,84,-39,-62,-59,-53,
27598486882,5,-124,-116,-68,-92,60,28,48,
27598501916,11,15,102,78,94,11,15,20,
27598501916,-55,39,-49,-101,-97,-22,-23,-67,
27598516959,27,28,-19,95,3,-5,16,16,
27598516959,20,4,114,57,-6,-11,9,30,
27598524550,11,-95,-59,-125,-84,34,27,59,
27598524550,-28,4,-14,113,60,37,4,6,
27598532110,-5,39,7,-22,-59,8,31,39,
27598532110,29,32,44,58,23,-26,-19,-27,
27598554615,5,-26,-24,35,23,-20,-17,-3,
27598554615,7,-63,-101,-56,-37,15,6,-3,
27598569421,-67,59,108,113,117,-32,-29,-41,
27598569421,67,-15,-24,-114,-119,-44,6,-7,
27598577096,-13,35,54,-108,-57,-17,-14,-34,
27598577096,-8,-31,-31,18,39,-32,-25,-29,
27598584572,93,127,37,-32,7,-44,-18,-12,
27598584572,-95,-128,-113,127,46,8,-6,-11,
27598599584,-18,-116,-128,-128,-102,71,23,28,
27598599584,-1,127,127,127,112,-29,3,-49,
27598622211,-23,80,70,127,95,-49,-25,-16,
27598622211,-40,-62,-128,-128,-128,49,13,2,
27598629568,11,-27,-7,-107,-86,41,23,12,
27598629568,61,42,-68,96,99,6,1,27,
27598637007,-54,-33,-4,20,36,-13,8,5,
27598637007,-4,75,9,-95,-44,-23,-18,-45,
27598651974,44,-43,-116,75,108,11,1,30,
27598651974,27,-11,127,-66,-66,5,7,51,
27598659625,-81,56,60,105,7,7,-1,-19,
27598659625,-21,-124,-102,-113,-118,9,-13,10,
27598666999,-1,51,51,112,31,14,16,9,
27598666999,25,11,30,62,-16,-28,-3,-3,
27598674471,37,-48,-28,35,32,2,9,13,
27598674471,-21,-48,-40,-55,-39,-21,-14,-36,
27598681907,62,56,64,21,-49,-1,19,23,
27598681907,-50,-7,73,-86,-26,-22,-26,-16,
27598689555,-27,-39,-38,-118,-77,27,-2,-8,
27598689555,101,106,103,127,91,1,27,27,
27598704655,-66,-8,-59,-47,13,-8,-16,-30,
27598704655,22,-30,-29,127,103,12,6,22,
27598719582,10,-16,-73,-71,-109,9,9,27,
27598719582,18,-41,27,-49,81,41,10,23,
27598734467,-4,-15,-128,11,30,-24,-19,-6,
27598734467,27,127,127,83,-12,-6,-4,-2,
27598741991,-37,-59,-47,18,-40,-25,-11,-4,
27598741991,32,67,-16,-47,-39,19,34,30,
27598749601,-89,-128,-98,3,-37,-25,-44,-57,
27598749601,4,-6,-26,89,13,7,12,15,
27598756855,12,79,127,108,46,3,-4,-19,
27598756855,-28,-50,-40,0,-62,-11,-12,-11,
27598779446,79,88,112,98,72,6,19,16,
27598779446,-50,-42,-102,-106,-80,1,1,-13,
27598794461,37,-47,-9,-126,-46,54,45,73,
27598794461,-48,25,42,38,-23,16,-13,-11,
27598801974,55,-35,-89,-62,-55,-1,7,26,
27598801974,-50,-55,51,40,-66,13,0,1,
27598809531,-9,31,49,42,67,-48,-41,-63,
27598809531,-62,-58,-71,-52,-89,-52,-25,-57,
27598816947,48,76,-12,52,26,56,45,86,
27598816947,-69,-16,-40,-70,-66,-26,-53,-47,
27598824584,10,-83,-48,62,-37,26,24,46,
27598824584,-12,-81,-29,16,127,15,5,-11,
27598831958,18,111,96,-16,-77,-48,0,-50,
27598831958,5,-34,-19,49,59,-9,-7,-25,
27598847177,40,39,-29,38,-13,-19,4,28,
27598847177,3,-39,27,47,23,5,13,21,
27598854608,-39,0,-20,-71,-4,-4,-24,-32,
27598854608,0,-10,26,23,-17,37,20,38,
27598862098,-43,36,36,-61,-10,-27,-25,-41,
27598862098,42,-80,-89,-62,-54,1,9,13,
27598877129,3,18,-34,-87,9,-2,-9,-14,
27598877129,6,23,57,75,4,0,9,14,
27598892089,-5,1,-38,-1,47,-1,7,17,
27598892089,35,68,103,55,9,-26,-14,1,
27598899432,-33,96,120,127,83,-37,-29,-74,
27598899432,13,-1,-76,83,-1,7,1,2,
27598914434,-6,-23,15,-127,-128,36,17,21,
27598914434,-53,-117,-126,-19,-5,18,-18,4,
27598921976,18,28,89,59,50,12,23,33,
27598921976,0,79,43,112,77,-38,-9,-24,
27598929605,5,-70,-69,-14,-24,29,9,19,
27598929605,45,110,99,-125,-93,-5,5,-5,
27598937109,-21,-128,-122,95,10,6,-2,4,
27598937109,10,55,24,0,96,2,0,-21,
27598944662,-46,4,24,-20,-1,-15,-10,-36,
27598944662,62,50,-79,76,109,9,7,17,
27598951923,51,-36,-37,-37,-15,16,22,65,
27598951923,-22,-9,109,-128,-93,8,-3,4,
27598974492,1,27,66,66,58,-19,-39,-55,
27598974492,-24,73,56,50,34,-1,15,1,
27598982146,-8,-68,-95,-102,-26,14,-2,-7,
27598982146,36,51,50,41,79,-10,21,31,
27598989645,0,-69,-52,-35,-87,-59,-43,-79,
27598989645,-62,-95,-57,-95,-97,17,18,41,
27598997153,-9,84,114,75,84,-6,10,13,
27598997153,-60,-122,-128,-126,-67,-3,-26,-5,
27599012117,24,-44,64,90,42,30,21,39,
27599012117,41,127,-70,-73,69,-17,-30,-65,
27599027083,-6,-54,-65,-9,-3,8,24,28,
27599027083,-89,-128,-112,-12,6,0,-2,-19,
27599034584,65,114,61,35,59,-56,-6,-34,
27599034584,-69,-110,-115,-100,-68,-11,-38,-54,
27599041925,48,106,55,92,105,61,33,63,
27599041925,-1,-14,-31,-81,-66,-28,-23,-14,
27599049572,-49,-72,-8,-123,-121,56,30,39,
27599049572,-35,-83,-65,-47,-58,22,-2,-9,
27599071973,-2,32,28,26,45,-30,-8,-15,
27599071973,10,-18,-42,-54,-58,-6,-9,-36,
27599079526,10,-60,-97,-24,-11,-5,-22,9,
27599079526,-7,-25,63,-36,8,31,44,45,
27599094507,7,4,-120,-128,-38,14,13,31,
27599094507,4,65,127,127,127,-23,-9,-21,
27599101894,6,-4,-24,44,-25,-14,-6,-25,
27599101894,31,53,47,82,41,-15,-14,-22,
27599116947,-44,-52,-51,-62,-123,-58,-31,-46,
27599116947,-63,-82,-46,-102,-65,34,16,49,
27599124620,38,48,17,26,56,52,40,52,
27599124620,-25,-37,-113,63,105,-6,-19,-18,
27599131970,3,-16,-30,-110,-82,-4,-5,-27,
27599131970,44,43,110,79,-35,-33,-3,-11,
27599139433,-126,-128,69,-1,-69,-49,-38,-67,
27599139433,2,-63,-45,112,-22,1,10,23,
27599154706,99,6,-5,-109,37,1,35,79,
27599154706,-128,-24,-30,-10,-57,30,-9,4,
27599162145,61,-34,-128,-40,-2,20,1,26,
27599162145,48,26,42,75,23,-14,0,12,
27599169608,-62,6,-35,-111,-81,-23,-27,-51,
27599169608,46,114,102,-6,6,-14,11,9,
27599177297,-22,-14,-36,-93,14,8,7,-21,
27599177297,-1,41,60,26,29,-26,-20,-8,
27599184395,43,1,-32,-33,-36,45,18,11,
27599184395,25,-30,-26,83,94,-22,-5,25,
27599191876,-46,1,31,-38,-103,-25,-30,-46,
27599191876,-18,14,19,-78,23,-9,5,-24,
27599206918,-26,-57,-76,-41,-77,-11,18,17,
27599206918,73,95,55,-100,63,24,25,62,
27599214442,-25,-113,-93,-111,-31,8,-23,6,
27599214442,48,36,39,-101,-120,28,31,45,
27599221998,-41,13,118,120,87,4,-14,-42,
27599221998,41,43,56,45,51,-23,-12,-67,
27599229402,-12,-78,-107,-76,-54,-8,12,41,
27599229402,56,85,127,30,102,15,26,46,
27599244479,-37,15,4,89,27,-1,-26,-19,
27599244479,29,-35,8,79,-16,53,17,28,
27599251881,33,125,58,4,87,-10,-2,-4,
27599251881,12,10,-57,-52,-128,-4,2,-16,
27599266935,-16,-53,-31,74,13,-5,-14,-2,
27599266935,-27,-77,67,107,114,-20,1,-19,
27599282084,37,127,1,-64,-13,-23,-9,-28,
27599282084,-74,-87,16,-46,-3,-4,-15,-25,
27599289504,36,36,-8,20,13,-18,-8,-24,
27599289504,61,-29,-116,-99,-96,3,21,54,
27599297118,-25,-100,-100,73,27,39,13,51,
27599297118,-14,57,26,-12,24,24,-8,8,
27599312176,-57,12,-20,-39,-53,-29,-34,-44,
27599312176,-25,-61,-77,-91,-31,14,15,-7,
27599319475,105,109,127,127,108,-19,23,20,
27599319475,-102,-128,-128,-119,-123,-8,-31,-42,
27599334561,4,127,127,110,127,-8,32,17,
27599334561,9,-38,-101,-128,-128,-33,-38,-17,
27599342117,48,42,-28,26,77,-9,0,13,
27599342117,-58,-72,-66,-50,-62,-23,-37,-30,
27599356982,-7,1,-26,19,-20,20,7,-11,
27599356982,15,-83,-97,-128,-42,9,2,1,
27599372045,22,0,73,64,36,17,28,26,
27599372045,16,100,-16,-39,34,-35,-15,-32,
27599379600,-9,-76,-48,-64,9,-6,-17,-7,
27599379600,-42,85,-51,92,68,-19,-18,-33,
27599394437,51,-91,-11,-115,-68,86,65,113,
27599394437,-67,-41,37,59,35,28,5,-13,
27599401987,38,107,-13,-62,-24,-22,-23,-48,
27599401987,-33,5,-52,-4,63,-50,-29,-28,
27599416901,-16,-69,30,46,-64,-17,-15,-3,
27599416901,37,37,61,2,1,26,23,30,
27599424470,-88,-30,8,-9,-60,-16,4,-50,
27599424470,40,68,125,81,103,-22,-8,4,
27599431968,38,-11,-115,-128,-14,3,11,35,
27599431968,-23,33,26,49,77,0,-11,-17,
27599439661,-21,-55,-1,4,52,-6,-11,-15,
27599439661,91,85,90,1,1,45,27,57,
27599454658,-128,-78,-128,-10,-51,-21,-41,-52,
27599454658,80,88,120,-14,40,-5,11,38,
27599461864,-69,-60,-67,-44,-59,-16,-23,-28,
27599461864,44,55,73,48,78,-11,-3,-20,
27599469602,-23,-64,-65,-100,-117,59,29,20,
27599469602,-22,-104,-100,3,-93,2,-11,-31,
27599477097,45,43,53,127,127,-16,15,15,
27599477097,-38,-104,-103,-14,-106,-16,-5,0,
27599484565,47,-38,-8,-44,68,-22,-10,2,
27599484565,-38,67,68,63,30,-32,-16,-33,
27599492127,-8,-10,-4,-84,-20,-4,-20,-10,
27599492127,4,-95,-53,33,-12,11,11,29,
27599514362,-48,-29,-60,-98,-98,11,-11,-34,
27599514362,51,-10,19,58,-6,-7,18,44,
27599522087,125,127,127,-30,-54,39,37,35,
27599522087,-95,-30,-9,-44,-3,2,-14,-27,
27599529464,-81,-65,-16,-104,-32,-6,-20,-31,
27599529464,41,-59,-62,46,-43,6,27,35,
27599536864,27,100,43,-57,75,-22,-12,-18,
27599536864,70,41,-64,81,40,-7,-20,-9,
27599559520,-52,-61,40,71,43,40,0,1,
27599559520,-74,-39,9,-42,-23,-27,-14,-23,
27599566982,13,-74,-27,-44,-81,24,33,45,
27599566982,15,22,37,32,-3,-8,9,-9,
27599574474,-24,-20,-25,31,-16,-34,-24,-38,
27599574474,92,123,95,-37,62,5,12,10,
27599582100,-57,-92,-108,-73,-104,-20,-17,-19,
27599582100,9,-10,103,38,6,1,2,11,
27599589474,124,127,127,127,119,11,46,65,
27599589474,-61,-120,-118,-60,-63,38,-23,5,
27599597187,20,89,68,-1,5,22,12,27,
27599597187,-50,-88,-115,-128,-84,-3,4,-5,
27599604655,-13,-32,-46,121,22,0,1,6,
27599604655,30,77,41,-118,-60,-12,5,-33,
27599611886,-82,-87,-68,127,103,-26,-39,-53,
27599611886,106,31,70,37,57,34,44,55,
27599634645,19,-9,-28,76,36,-38,-31,-10,
27599634645,-24,-24,-105,-81,-56,63,21,2,
27599642086,23,57,127,105,-1,-59,-21,-10,
27599642086,-39,-59,-44,-57,-4,-20,-16,-31,
27599649536,31,106,39,-16,34,42,17,-9,
27599649536,-32,-29,16,19,15,-24,-32,-10,
27599656994,6,-17,-27,-53,-37,-8,-1,9,
27599656994,19,37,-38,7,15,-8,9,16,
27599671830,-37,-71,-49,-52,-36,-49,-32,-20,
27599671830,-62,-24,0,-10,-79,30,19,6,
27599679581,4,-57,-70,75,68,-13,-11,0,
27599679581,37,68,127,56,-25,40,31,25,
27599686859,-25,-69,-96,-77,-22,-7,-21,-8,
27599686859,-31,-62,-45,77,30,-1,9,12,
27599694651,-17,-52,-103,-49,-41,-19,-12,-21,
27599694651,-8,0,24,70,-3,-32,-8,-26,
27599701947,85,127,127,38,-35,-38,-10,-30,
27599701947,-75,-128,-121,-35,76,-39,-33,-31,
27599709589,88,-39,6,74,-46,34,47,84,
27599709589,-48,-128,-128,-128,-121,16,-20,-5,
27599731950,18,93,83,82,62,12,17,27,
27599731950,-10,71,48,-79,-16,-46,-46,-77,
27599739727,-58,-79,102,88,107,17,24,9,
27599739727,28,-3,-51,-117,-63,8,7,24,
27599762101,-100,-128,-128,-99,-86,-17,-29,-11,
27599762101,-3,109,83,120,115,64,69,58,
27599769485,34,12,-62,-92,-16,-59,-43,-50,
27599769485,50,33,-78,-24,-38,49,9,17,
27599776879,-30,-115,-34,44,24,21,17,26,
27599776879,29,71,78,-76,-63,10,5,-25,
27599784412,-112,20,2,75,32,-47,-43,-87,
27599784412,4,81,25,4,127,-4,-1,-8,
27599792079,77,44,17,-122,-27,24,12,38,
27599792079,37,-52,-76,11,-15,16,-1,19,
27599799567,24,74,52,29,9,-13,-2,-7,
27599799567,33,-5,31,15,-26,6,16,20,
27599806931,-3,62,68,37,22,-11,9,-14,
27599806931,-26,-128,-127,84,-39,-32,-39,-36,
27599814382,94,69,94,-11,86,59,57,98,
27599814382,-85,-125,-93,-35,34,-14,-31,-13,
27599821926,86,117,113,-91,-107,12,13,27,
27599821926,-57,-92,-76,-82,-49,37,31,39,
27599829441,3,48,50,11,-23,13,-9,3,
27599829441,-21,-9,-21,14,8,-18,-7,-28,
27599844563,-51,-126,-102,-22,35,28,-3,-41,
27599844563,103,110,103,105,104,-78,-23,-20,
27599852040,5,-21,-89,-17,-76,-29,-6,-3,
27599852040,-34,25,67,74,3,-6,-10,-5,
