timestamp,C1,C2,C3,C4,C5,C6,C7,C8,
36552143952,13,0,-33,-16,8,20,30,25,
36552143952,-10,21,39,31,44,13,11,1,
36552151352,0,9,30,-103,13,34,13,5,
36552151352,-19,5,61,100,9,-12,-16,-14,
36552158805,1,14,-5,-76,-21,-3,-10,-8,
36552158805,17,-30,-63,-14,-43,-15,2,9,
36552166556,-18,-33,-54,37,-65,-39,-14,-12,
36552166556,3,-8,-54,-124,-50,5,4,4,
36552182735,6,32,104,78,47,18,4,1,
36552182735,-10,30,24,19,43,-4,-5,-7,
36552188953,15,11,28,-82,-9,-9,-9,-3,
36552188953,20,-26,-46,76,-37,3,13,18,
36552204072,13,-17,-28,15,-14,0,7,9,
36552204072,-14,34,54,-39,20,25,-5,-6,
36552211365,-22,-61,-110,-70,-84,-18,-3,-16,
36552211365,-6,21,86,78,106,2,-6,0,
36552227912,26,30,71,32,35,41,16,8,
36552227912,-10,-36,-10,83,-35,-19,-16,-7,
36552235449,-1,12,-72,-65,-84,-8,14,12,
36552235449,12,-2,2,-32,20,4,5,5,
36552248856,-42,-2,37,112,59,-28,-31,-32,
36552248856,12,22,51,-81,-62,3,16,3,
36552264127,-7,-31,-57,-28,16,6,1,-2,
36552264127,-21,-2,-6,49,-54,-12,-7,-8,
36552271641,35,22,-18,-121,-14,4,12,21,
36552271641,-19,-48,-69,46,-24,-6,-25,-15,
36552279288,-2,-2,-43,36,-33,-31,-16,1,
36552279288,58,42,54,-128,-18,52,34,38,
36552295474,-70,-45,-24,114,70,-22,-35,-46,
36552295474,-2,13,8,-128,-81,-16,3,-3,
36552301547,71,89,127,127,127,90,47,40,
36552301547,-24,-46,-55,95,10,-28,-15,-19,
36552308881,-17,-20,-37,-128,-128,-42,-24,-16,
36552308881,22,-1,-92,-66,-16,-7,16,14,
36552316375,-35,-36,5,-37,14,-16,-28,-20,
36552316375,16,23,33,-69,-36,15,9,12,
36552323840,21,7,21,106,98,35,28,21,
36552323840,-32,-11,17,76,-35,-44,-22,-19,
36552334518,-20,29,22,-74,-71,-30,-34,-31,
36552334518,-6,3,-44,-104,12,13,5,-8,
36552347786,-5,-49,-83,26,-38,2,0,1,
36552347786,29,37,53,-44,65,1,5,18,
36552353915,24,8,57,127,85,24,15,17,
36552353915,-35,-31,-53,-128,-128,-43,-17,-22,
36552368943,34,74,92,53,60,57,31,24,
36552368943,-6,-12,20,97,123,55,21,2,
36552376413,-43,-35,-16,-11,15,-22,-14,-15,
36552376413,5,-24,-128,-92,-45,-33,-29,-15,
36552387145,-23,-67,-65,-105,-128,-49,-2,-6,
36552387145,8,52,65,-121,-42,-12,-9,2,
36552392791,37,48,104,91,84,44,32,18,
36552392791,-22,5,30,127,112,21,7,-10,
36552406358,-14,-29,-90,-114,-9,-18,-31,-25,
36552406358,4,-32,-29,11,-59,-5,-4,-1,
36552413943,-35,-35,-73,-39,-124,-39,-17,-19,
36552413943,28,84,127,88,67,12,6,20,
36552429040,24,46,63,-21,52,49,43,19,
36552429040,-3,-20,13,92,45,11,18,15,
36552436442,-23,-20,-59,-62,-36,-6,-24,-15,
36552436442,-7,-36,-24,33,-48,-45,-36,-15,
36552458798,3,-20,-75,-64,-50,-16,16,11,
36552458798,7,-51,-87,-116,-83,-21,-16,4,
36552466382,-23,-49,-82,-46,-59,-17,-18,-14,
36552466382,-9,-10,26,69,86,-13,-22,-12,
36552473773,67,57,78,-29,-1,46,22,34,
36552473773,6,62,127,-1,103,17,14,6,
36552481229,-5,31,106,72,94,20,-1,-6,
36552481229,7,2,-6,19,-12,-3,1,-1,
36552488799,-64,-98,-107,-62,-70,-75,-40,-35,
36552488799,15,1,18,-43,-22,-27,-9,12,
36552503799,8,50,99,69,74,62,24,10,
36552503799,4,42,31,54,110,19,1,-7,
36552511239,4,-7,31,12,80,26,27,13,
36552511239,-11,-25,-128,-96,-128,-24,4,-9,
36552526341,-4,-42,-114,-124,-120,-59,-20,-8,
36552526341,15,7,23,57,-30,7,-3,13,
36552533768,-8,7,-23,-98,16,-3,-24,-12,
36552533768,-60,-53,0,127,-50,-23,-19,-32,
36552556204,-37,-23,15,87,43,-8,-18,-24,
36552556204,-7,2,-21,-56,-19,2,3,-4,
36552571295,13,10,-59,-63,-75,-25,-1,4,
36552571295,-27,-48,-74,-128,-107,-13,2,-10,
36552578896,37,72,127,108,127,21,3,17,
36552578896,26,13,79,127,127,81,28,11,
36552593769,-31,-46,-52,-79,-36,-30,-17,-15,
36552593769,-4,-7,-34,-56,-100,-21,-3,4,
36552608827,-13,-12,-59,33,25,15,1,-7,
36552608827,1,12,60,12,-102,-38,-14,-5,
36552623732,34,17,-20,-19,34,7,-10,9,
36552623732,-6,-20,-65,-128,3,11,12,5,
36552631276,37,28,80,77,58,59,36,29,
36552631276,-14,-25,7,68,39,-17,-3,-2,
36552646333,-49,-28,-7,-53,-7,-20,-27,-29,
36552646333,-6,23,36,55,-76,-13,0,-5,
36552661266,5,37,28,-5,-6,3,-12,-9,
36552661266,22,11,-6,49,108,34,8,11,
36552676288,-22,-65,-127,-128,-111,-34,-9,-10,
36552676288,-8,27,54,47,-81,-7,8,-3,
36552691220,39,54,59,22,58,9,-11,11,
36552691220,16,-14,44,127,127,26,-7,10,
36552699020,-32,-27,-66,61,43,-19,-16,-17,
36552699020,13,5,-23,-128,-117,-1,3,6,
36552706279,-10,-2,29,-43,-56,28,11,-5,
36552706279,17,82,127,104,80,34,36,15,
36552713834,5,2,-1,-63,41,20,-6,-6,
36552713834,-25,-68,-102,-34,-24,-23,-19,-14,
36552736518,43,49,112,74,65,47,22,30,
36552736518,-52,-9,31,96,84,19,2,-28,
36552751366,16,47,-14,-28,4,10,-4,1,
36552751366,-11,-52,-100,3,-13,7,2,-6,
36552758834,-9,-28,-65,-57,-84,-21,-16,-10,
36552758834,18,-3,2,58,-36,-23,2,14,
36552773957,-25,-24,20,127,30,1,10,-3,
36552773957,-35,25,-5,-115,-15,2,-5,-25,
36552788811,-9,-50,-68,-128,-128,-44,-23,-11,
36552788811,54,77,40,19,56,87,50,48,
36552804106,16,36,68,116,99,51,14,11,
36552804106,-67,-52,-47,-43,-59,-17,-26,-35,
36552811285,-14,3,-98,-124,-113,-67,-24,-16,
36552811285,22,-3,1,-58,1,-9,-4,7,
36552833848,22,5,2,122,15,8,26,22,
36552833848,-8,-13,7,-6,-16,-2,-15,-8,
36552841305,-33,-30,-20,35,-73,-16,3,-13,
36552841305,-15,3,-30,-127,42,2,1,-6,
36552856319,49,88,127,-94,62,34,14,26,
36552856319,21,31,21,-8,-37,11,24,12,
36552871532,-48,-101,-83,59,-50,-56,-33,-34,
36552871532,-42,-46,-104,-65,-113,-40,-16,-15,
36552886339,-5,-30,-28,0,1,-32,-4,0,
36552886339,13,36,31,-29,-31,28,23,19,
36552893884,-47,-34,16,127,75,-6,-13,-26,
36552893884,-17,-4,-33,-1,-54,-21,-32,-25,
36552923784,25,-18,-113,-110,-51,-25,0,15,
36552923784,-34,-78,-107,-116,-103,-19,-13,-19,
36552938775,-16,10,85,94,-18,-7,-22,-10,
36552938775,6,20,18,-24,-10,7,10,-5,
36552946340,-11,-23,14,37,-19,-16,3,2,
36552946340,28,35,42,1,64,25,15,20,
36552969084,13,-16,-63,18,-16,-23,-14,3,
36552969084,-18,-47,-100,-128,-111,-51,-18,-7,
36552976244,-16,6,42,-117,27,25,11,1,
36552976244,15,17,-13,75,3,29,4,5,
36552983860,-14,-13,7,-17,-58,-14,0,-8,
36552983860,26,-7,9,121,52,-3,3,13,
36552991281,-1,6,-17,-128,-38,-18,-13,0,
36552991281,10,39,108,-11,118,71,41,21,
36552998761,-50,-8,49,92,7,8,-10,-37,
36552998761,-14,2,-74,-128,-123,-35,-11,-17,
36553013905,-20,-57,-83,117,-32,-20,-9,-15,
36553013905,6,-36,-48,-128,-117,-60,-39,-6,
36553029006,8,-13,-6,83,116,-21,-24,-10,
36553029006,-68,-59,-110,-91,-98,-35,-30,-45,
36553036326,-7,29,33,-34,-56,10,7,-2,
36553036326,25,25,-11,-120,16,1,14,17,
36553043791,41,11,-33,-38,-71,7,18,29,
36553043791,12,18,127,127,127,18,2,5,
36553051266,-41,-16,44,123,106,-9,-13,-27,
36553051266,-63,-86,-108,-87,-120,-70,-30,-33,
36553066498,-13,18,-23,-80,-91,-26,-9,-2,
36553066498,90,98,68,-8,110,77,42,51,
36553073789,7,-31,-17,76,98,27,17,5,
36553073789,-47,-41,53,94,-57,-31,-23,-24,
36553088789,22,61,42,-93,-127,2,17,14,
36553088789,-31,-72,-128,102,19,-31,-47,-40,
36553103977,-14,-18,-30,-128,-9,-26,-11,-3,
36553103977,27,48,77,3,-42,18,19,18,
36553111554,-39,-55,-38,82,-48,-30,-38,-32,
36553111554,7,4,-4,-128,40,31,33,15,
36553119086,72,99,85,119,101,70,47,41,
36553119086,-20,-31,-59,-11,120,9,-6,-13,
36553133718,-9,-45,-41,17,-61,-27,-3,1,
36553133718,-52,-49,-29,-71,-121,-50,-44,-39,
36553141318,9,9,-17,-128,-72,-54,-28,-2,
36553141318,-14,10,23,72,-81,-6,4,-7,
36553156271,-31,-27,73,38,11,-13,0,-9,
36553156271,44,100,77,-64,-64,13,0,17,
36553171483,20,13,45,-22,-74,-6,-5,9,
36553171483,16,10,-22,9,39,43,55,36,
36553186341,-21,-16,36,106,122,2,-7,-17,
36553186341,2,34,51,-87,-15,12,-3,10,
36553194005,-43,-49,-73,-28,-14,-8,-29,-33,
36553194005,-9,-44,-109,-118,-91,-42,-18,-9,
36553208716,43,45,108,28,80,34,22,26,
36553208716,12,25,37,50,47,7,4,4,
36553216480,-21,-41,-93,-79,-107,-16,-9,-18,
36553216480,3,37,93,27,94,-8,-21,0,
36553231453,15,-21,-89,-86,-128,-7,-3,14,
36553231453,-10,-49,-46,69,75,23,-11,-13,
36553246511,-29,24,67,61,-9,-52,-59,-35,
36553246511,-66,-10,-17,-54,-105,-18,7,-36,
36553253861,22,-1,-106,-128,-30,2,10,7,
36553253861,51,40,70,101,68,78,49,47,
36553276317,-7,-34,3,81,41,-5,-12,-7,
36553276317,37,9,26,-34,-12,-20,-14,20,
36553283875,-64,-24,-27,-73,11,-25,-50,-43,
36553283875,34,20,5,-128,-98,-26,10,14,
36553298888,-77,-5,53,-2,24,-14,-34,-52,
36553298888,-27,35,40,-32,105,36,10,-19,
36553313933,25,-36,-92,-23,63,11,-2,21,
36553313933,28,-14,-49,-63,-91,-51,-20,11,
36553328993,-2,66,29,-117,-7,-2,-8,-20,
36553328993,6,-20,5,88,47,54,17,6,
36553336520,23,-30,-36,42,-60,-52,-28,5,
36553336520,-7,-43,-80,-55,-123,-53,-17,-9,
36553351338,-26,32,94,93,17,-13,17,-6,
36553351338,67,80,83,123,49,30,0,23,
36553366306,7,7,2,-39,117,59,37,19,
36553366306,-43,-40,-63,14,72,47,19,-15,
36553373759,24,15,-8,91,-41,-36,8,17,
36553373759,35,-21,-63,-78,-52,-29,-18,15,
36553389008,-84,-53,14,105,-67,-20,-47,-54,
36553389008,40,50,82,26,70,10,13,18,
36553396303,20,-23,-82,26,53,65,41,20,
36553396303,-50,-33,-74,-56,-97,-78,-80,-43,
36553411223,-36,-17,-13,94,-13,-25,-30,-25,
36553411223,-1,-51,-75,-121,-20,-38,-33,-14,
36553433722,8,32,30,-128,-55,-5,11,4,
36553433722,122,127,127,98,127,76,61,68,
36553441278,36,14,49,87,127,76,16,19,
36553441278,-83,-128,-100,58,-50,-26,-18,-33,
36553456221,-62,-102,-128,-68,-92,-73,-33,-32,
36553456221,-36,28,15,-116,-128,-95,-72,-44,
36553464022,50,68,50,-11,11,32,47,27,
36553464022,43,31,82,127,127,88,74,49,
36553471501,-53,-24,19,20,38,6,-37,-38,
36553471501,-5,-98,-118,-51,-111,-85,-46,-15,
36553479007,-24,-25,-110,-128,-128,-69,-16,-15,
36553479007,61,103,44,-75,16,15,30,35,
36553486494,46,20,106,120,127,82,24,26,
36553486494,-43,-24,41,94,32,49,-6,-22,
36553501519,-56,-54,-77,17,1,-40,-31,-33,
36553501519,-39,-44,-60,-85,-107,-41,-19,-28,
36553516233,69,75,-22,-121,-112,-38,-1,28,
36553516233,21,11,127,97,47,27,23,20,
36553523737,6,52,112,-22,66,-4,4,6,
36553523737,27,39,23,15,124,79,42,19,
36553531235,-18,-67,-89,90,101,-12,-11,-2,
36553531235,-55,-89,-127,-113,-85,-26,-19,-31,
36553538959,7,69,94,19,-36,-39,-12,1,
36553538959,28,50,103,105,67,41,15,6,
36553553833,-30,-33,61,109,49,26,-16,-18,
36553553833,-21,-2,-72,-33,-35,-40,-16,-18,
36553568795,19,-20,-73,12,-28,-5,16,13,
36553568795,48,74,55,87,53,53,29,31,
36553576308,25,87,112,-85,117,71,18,13,
36553576308,-13,2,127,127,127,52,3,-13,
36553583783,-12,-31,-22,-114,-32,-47,-12,-4,
36553583783,-25,-41,-100,-124,-105,-26,3,2,
36553591317,-17,-47,-127,-87,-106,-52,-24,-19,
36553591317,35,36,58,42,49,-1,5,17,
36553606313,-11,19,67,55,45,20,29,4,
36553606313,-26,-23,-23,-6,6,1,-20,-27,
36553614093,4,-36,-87,-37,-15,-27,-30,-7,
36553614093,-37,-35,18,-128,-47,0,-6,-9,
36553629012,16,101,103,69,66,52,20,4,
36553629012,43,34,27,108,118,27,24,21,
36553636337,-6,-90,-92,-11,-70,-45,-28,-6,
36553636337,-8,-60,-124,-86,-128,-85,-34,-5,
36553658914,-3,-1,-73,-128,-128,-25,-7,-5,
36553658914,6,68,118,92,96,23,27,10,
36553666290,-44,31,127,-54,127,91,35,-20,
36553666290,35,63,96,127,121,57,33,22,
36553673907,19,-36,0,67,27,4,8,18,
36553673907,-37,-70,-102,-128,-118,-35,-25,-21,
36553681494,-18,-41,-61,6,-109,-87,-41,-23,
36553681494,-13,-37,-128,-128,-128,-37,-3,3,
36553703863,21,31,119,-19,127,92,52,30,
36553703863,-29,-30,28,127,120,42,21,-7,
36553726380,-9,16,0,123,49,-6,-9,-8,
36553726380,-5,8,-14,-78,4,13,-29,-17,
36553741268,-14,-17,12,63,50,6,0,-14,
36553741268,-13,-20,6,-36,-78,-16,-6,-11,
36553748859,28,39,72,81,-70,15,24,20,
36553748859,-12,11,-13,-87,57,1,8,-4,
36553756290,7,14,37,127,127,51,25,12,
36553756290,-14,-15,22,-78,-37,-11,-12,-3,
36553771433,-1,10,50,120,108,58,23,-2,
36553771433,29,80,119,0,67,8,0,11,
36553786563,-11,-39,1,127,15,12,1,-10,
36553786563,-60,-51,-75,-85,-77,-48,-22,-32,
36553801499,26,17,-11,-58,-54,17,-3,9,
36553801499,42,-37,-71,22,-3,-3,24,32,
36553823739,-22,-43,-79,67,-59,-52,-31,-18,
36553823739,-14,3,-17,-59,-55,-35,-21,-11,
36553831401,-3,81,83,9,22,38,39,9,
36553831401,22,73,101,99,79,35,5,-5,
36553846235,-29,-104,-128,33,-94,-56,-35,-18,
36553846235,-18,-59,-120,-64,-128,-103,-35,-14,
36553861304,90,127,113,-76,30,16,47,60,
36553861304,8,64,109,127,127,66,2,-8,
36553868826,-46,-7,-3,-99,72,29,12,-13,
36553868826,-62,-73,-75,-19,-28,10,-19,-40,
36553876242,-55,-52,-69,-128,-102,-62,-51,-36,
36553876242,19,33,-66,-128,-77,-34,-12,-1,
36553898990,78,3,-45,-54,30,-2,19,46,
36553898990,20,-18,-4,-6,44,14,-2,11,
36553913816,40,14,42,86,-102,10,7,20,
36553913816,-41,-52,-4,22,-10,-12,-35,-26,
36553928827,-1,41,48,-2,49,-2,-14,-8,
36553928827,31,61,87,26,51,13,38,26,
36553951421,33,42,3,-105,-49,-23,19,24,
36553951421,45,75,102,65,102,67,29,27,
36553966566,-32,-2,76,125,127,52,10,-21,
36553966566,10,59,127,28,-2,13,7,1,
36553973797,24,0,-40,7,-41,6,5,3,
36553973797,2,-35,-5,3,34,-18,2,-1,
36553981516,-35,-13,-22,111,-41,-42,-36,-28,
36553981516,-37,-89,-128,-121,-128,-41,-6,-20,
36554004003,41,12,26,-47,-7,0,17,39,
36554004003,45,69,118,115,113,72,29,27,
36554011216,-37,4,125,127,-39,-2,-16,-25,
36554011216,-31,10,32,121,51,-2,-14,-24,
36554018757,36,-45,-97,-47,-71,-34,-15,13,
36554018757,-37,-61,-98,-44,-87,-30,-7,-7,
36554026254,40,106,76,48,86,36,29,29,
36554026254,-17,23,57,-39,-2,29,-8,-19,
36554033762,-27,-16,-43,-6,127,10,-8,-19,
36554033762,-5,-66,-72,41,-59,-39,-23,-8,
36554056211,25,89,127,108,88,60,29,20,
36554056211,-7,-3,47,111,103,9,7,-5,
36554063739,-16,-4,-8,98,127,11,4,-11,
36554063739,-18,-26,-41,-85,-38,-10,-10,-9,
36554078762,-76,-38,-84,-111,-128,-25,-33,-53,
36554078762,10,17,-67,-128,-108,-60,-30,0,
36554086245,88,13,69,100,50,56,51,63,
36554086245,-9,-26,-14,79,85,-3,-7,1,
36554093718,-28,-21,-60,-92,-98,-30,-22,-22,
36554093718,1,-17,24,65,-69,8,13,3,
36554108777,-3,3,28,38,-33,4,1,0,
36554108777,-20,-50,-108,-88,6,8,-21,-14,
36554116273,-25,-36,-27,-128,32,3,-8,-14,
36554116273,29,15,-6,45,-121,-23,-13,7,
36554131214,29,26,45,-72,-76,2,33,24,
36554131214,45,79,127,127,102,59,40,31,
36554138712,-56,-42,34,47,47,-13,-26,-33,
36554138712,-35,-17,-78,-128,-62,-6,-22,-25,
36554146334,-11,-80,-104,37,-78,-51,-44,-20,
36554146334,-14,-6,-64,-128,-128,-60,-3,1,
36554153958,89,112,84,49,57,45,51,51,
36554153958,3,5,67,79,115,81,36,13,
36554169029,-16,-29,6,-44,-17,3,-4,-6,
36554169029,-20,-56,-48,-38,-59,-18,-24,-16,
36554176301,-73,-111,-128,-128,-128,-91,-56,-53,
36554176301,19,30,-104,-128,-128,-43,0,15,
36554191249,93,127,127,127,127,83,34,42,
36554191249,-18,12,127,126,127,67,24,-4,
36554198783,-24,24,-9,-112,-15,-8,-16,-25,
36554198783,-9,-71,-128,-128,-111,-24,-11,-5,
36554206344,-52,-66,-100,-128,-106,-62,-27,-20,
36554206344,6,-15,-53,-118,-120,-40,-26,-5,
36554214019,60,-20,-49,-46,-74,-1,24,41,
36554214019,34,65,106,27,113,49,34,37,
36554228782,-15,38,105,108,117,45,19,-12,
36554228782,-23,7,53,119,118,-9,-26,-18,
36554236306,-48,-19,-112,-98,-126,-13,-29,-38,
36554236306,11,-31,-43,-68,-62,-30,18,7,
36554251312,30,0,10,96,30,-8,2,16,
36554251312,4,23,-35,-121,2,12,6,2,
36554258825,19,38,111,127,125,25,-8,3,
36554258825,-5,-14,44,108,60,32,12,-1,
36554266551,-44,-29,10,-60,-94,-25,-15,-28,
36554266551,-22,-15,-98,-94,-116,-54,-18,-19,
36554273798,-24,-83,-128,-128,-128,-22,-9,-15,
36554273798,-7,50,48,-128,48,-66,-66,-17,
36554288947,112,92,93,94,111,109,108,84,
36554288947,15,-22,10,109,127,91,47,24,
36554296224,-38,-31,34,-7,-23,-3,-12,-16,
36554296224,-26,-30,-63,-54,-128,-5,-15,-18,
36554311517,-50,-67,-122,-95,-128,-93,-53,-37,
36554311517,2,19,-31,-128,-99,-31,-1,-1,
36554318645,40,84,95,89,123,18,17,22,
36554318645,-25,-70,-87,2,-7,-11,-15,-19,
36554326339,-7,12,-5,-115,-27,-27,-36,-9,
36554326339,35,9,49,94,103,69,47,26,
36554334134,-24,-32,67,89,64,-2,20,-1,
36554334134,55,99,55,-53,-12,0,8,19,
36554348986,-3,-6,-54,-70,-35,4,-17,-16,
36554348986,-50,-52,12,92,8,-36,-31,-28,
36554356229,-10,8,8,-99,-13,-5,-11,-7,
36554356229,-53,-51,-52,23,-67,20,17,-12,
36554371326,-11,-1,-103,-106,-109,-69,-23,-13,
36554371326,76,55,50,-3,10,35,29,46,
36554378807,36,39,86,127,99,64,41,35,
36554378807,-6,-13,42,71,80,10,1,-2,
36554386305,-57,-72,-64,-79,-45,10,-15,-32,
36554386305,-9,8,-33,-118,-116,-72,-32,-11,
36554401465,-16,8,12,28,-60,-9,-6,-12,
36554401465,18,31,64,-94,21,-6,-12,-7,
36554416563,29,16,36,127,127,74,40,31,
36554416563,-13,-15,-64,-60,2,12,-14,-18,
36554423847,12,-15,-6,46,-24,-6,9,14,
36554423847,-25,-30,-49,-41,-40,-25,-16,-22,
36554439011,-42,-9,55,22,-65,-38,-33,-28,
36554439011,32,77,19,-98,11,9,15,10,
36554446498,21,10,19,-2,20,10,19,13,
36554446498,-37,-57,-94,-53,-106,-24,-15,-18,
36554454013,-29,-21,-69,-70,-96,-54,-40,-28,
36554454013,46,16,-52,-28,7,24,19,31,
36554468761,21,2,60,41,-19,-5,-1,16,
36554468761,0,42,127,120,124,28,-2,-1,
36554476225,-17,-4,-76,59,16,21,19,-14,
36554476225,-29,-42,-84,-72,-109,-34,-19,-18,
36554499071,32,53,84,80,100,28,18,19,
36554499071,19,7,11,-61,-23,0,5,15,
36554506254,-6,-17,-39,-76,-62,-11,-24,-14,
36554506254,13,-34,-6,86,-39,-32,-1,6,
36554521330,6,58,96,69,59,33,19,10,
36554521330,-7,-12,-37,50,89,39,2,-6,
36554536541,32,-58,-49,-54,19,1,-5,22,
36554536541,18,1,18,26,6,30,37,35,
36554551522,25,39,33,-2,-71,-1,2,6,
36554551522,2,13,42,82,64,52,5,-11,
36554558749,9,-4,11,-128,-64,21,9,11,
36554558749,18,20,8,-17,-32,18,4,2,
36554573820,-33,-53,-66,-61,-48,-62,-27,-28,
36554573820,1,-19,9,-79,-26,-57,-22,3,
36554588983,42,87,63,-47,38,57,35,28,
36554588983,26,52,117,127,100,70,24,7,
36554611495,24,-21,-70,-43,28,8,-27,-3,
36554611495,-33,-46,-128,-128,-116,-31,-16,-19,
36554626263,-27,-45,-16,105,-72,-48,-10,-7,
36554626263,-8,13,-11,-111,-47,-8,9,11,
36554633925,13,19,61,116,44,-7,-9,-3,
36554633925,-17,-11,-5,15,31,-3,1,-15,
36554648804,-13,-37,-61,8,67,23,14,-4,
36554648804,-2,2,-5,-9,55,20,21,14,
36554671333,-54,-72,-128,40,63,19,-10,-36,
36554671333,-2,-28,-85,-128,-89,-51,-21,4,
36554678802,41,66,66,40,24,65,29,24,
36554678802,-4,-4,46,59,73,32,16,0,
36554693846,-2,31,86,-16,60,8,13,4,
36554693846,-6,-10,-24,51,-16,-28,-23,-19,
36554701255,-18,-67,-128,-114,-114,-72,-21,-13,
36554701255,-7,-11,-37,-41,-77,-10,-11,-3,
36554708787,-13,-5,4,-102,-43,21,-1,-13,
36554708787,-6,-21,8,-7,-98,-26,-4,4,
36554716479,15,60,29,59,97,49,18,13,
36554716479,40,39,79,-20,57,47,24,25,
36554731282,2,-42,-36,127,3,-15,-8,1,
36554731282,-9,-21,-49,-124,-69,-40,-10,-2,
36554738898,3,2,25,100,80,20,6,8,
36554738898,-49,-7,-40,-128,-81,-17,-25,-36,
36554753909,25,100,127,-64,-66,29,15,7,
36554753909,76,82,61,127,103,73,42,35,
36554761518,-2,-82,-108,9,31,15,2,-2,
36554761518,-24,-64,-114,-37,-58,-57,-30,-4,
36554768969,-62,-78,-128,-125,-128,-77,-51,-38,
36554768969,-42,-28,5,-103,-128,-41,-19,-19,
36554776460,40,105,79,-128,-24,15,29,23,
36554776460,37,52,127,115,101,55,36,21,
36554791333,22,14,86,123,90,42,22,17,
36554791333,-9,-53,-105,-71,-14,13,-13,-14,
36554798895,-58,-80,-97,-120,-119,-96,-53,-42,
36554798895,-18,-11,-114,-90,-88,-42,-25,-22,
36554813878,58,58,70,15,61,25,23,33,
36554813878,25,55,125,127,127,81,50,27,
36554821241,-27,-31,1,81,92,36,12,-8,
36554821241,-38,-55,-88,-99,-111,-66,-40,-25,
36554828832,-38,-33,-80,-71,-73,-33,-29,-29,
36554828832,82,78,82,75,67,47,23,47,
36554836326,12,67,70,74,61,30,0,-5,
36554836326,-25,-53,-49,-24,-8,-36,-23,-24,
36554851335,-86,-108,-128,-103,-90,-56,-16,-41,
36554851335,7,18,27,-128,-120,-75,-27,-1,
36554858842,60,121,123,64,74,79,54,40,
36554858842,3,-18,-8,88,106,50,-4,-7,
36554866479,-40,-60,-77,74,45,-17,-17,-16,
36554866479,16,-12,-128,-111,-124,-39,0,14,
36554873837,39,9,61,99,44,4,2,19,
36554873837,-25,-29,-34,-71,-57,2,-1,-7,
36554888787,-11,-2,-13,-86,-87,-17,-3,-1,
36554888787,-7,-15,64,127,127,32,1,0,
36554896503,-12,9,33,-5,-17,-15,-17,-10,
36554896503,-3,9,55,127,-83,-12,3,-9,
36554911227,4,23,10,-40,28,14,4,3,
36554911227,1,34,-9,-38,31,30,6,-10,
36554918974,16,-14,-7,9,15,-16,1,11,
36554918974,-1,9,16,-56,53,34,16,2,
36554933835,62,27,72,98,-31,-1,8,34,
36554933835,-47,-42,-3,87,39,-14,-9,-21,
36554941258,-27,-53,-107,-113,-50,-57,-41,-29,
36554941258,-8,-14,-82,-63,-93,-25,-9,-1,
36554948879,-16,12,-68,-128,-82,2,-2,-17,
36554948879,8,-31,26,68,39,13,8,9,
