timestamp,C1,C2,C3,C4,C5,C6,C7,C8,
36019903266,18,21,6,-83,-80,-34,35,0,
36019903266,1,-18,1,98,-60,-40,6,-3,
36019909026,-13,-10,-19,-46,102,37,-19,-4,
36019909026,-4,-2,-9,-12,-78,-19,-8,-2,
36019918511,-6,-7,6,-64,-83,11,-11,1,
36019918511,-7,2,-6,-51,90,9,1,-1,
36019938811,4,11,-1,9,-64,-2,6,-1,
36019938811,-1,-11,0,98,46,6,-6,-2,
36019976416,3,7,14,-90,-16,-6,5,4,
36019976416,2,13,0,49,-34,-13,9,-2,
36019999001,0,2,-2,-91,-83,-15,6,0,
36019999001,1,-17,-8,-41,-32,-12,8,-1,
36020021395,-26,-71,-19,69,10,-4,-37,-8,
36020021395,18,68,39,16,54,42,37,2,
36020029019,-5,-6,0,-78,-86,-9,-1,-8,
36020029019,13,18,18,127,127,-4,34,3,
36020036775,-32,-50,-35,-63,127,22,-50,-7,
36020036775,-2,10,21,-36,-127,20,-14,-1,
36020058831,15,50,2,91,124,9,33,2,
36020058831,-30,-69,-48,-128,-120,-42,-45,-9,
36020075282,22,46,49,25,-26,-28,37,1,
36020075282,6,3,-10,56,20,16,8,7,
36020081521,-19,-43,-10,27,114,17,-25,-12,
36020081521,-18,-29,-23,-54,-5,-6,-32,-5,
36020104924,-13,-13,-13,-56,-76,-3,-24,-3,
36020104924,7,5,6,-14,-11,1,11,3,
36020119066,-4,-1,3,72,120,26,-9,-1,
36020119066,-7,-8,-4,-27,-4,15,-20,-1,
36020133922,22,31,21,121,27,-28,39,8,
36020133922,-21,-50,-32,-99,-58,-26,-31,-11,
36020142762,11,21,26,89,17,13,17,3,
36020142762,-15,-4,-7,85,127,24,-21,-4,
36020149033,-11,2,-12,-83,-67,7,-29,-3,
36020149033,10,1,8,6,-29,-4,18,-2,
36020156285,22,27,12,-8,2,-11,28,3,
36020156285,-12,-30,-31,-21,-17,-27,-18,-4,
36020164125,1,-23,6,-57,-112,-7,9,-1,
36020164125,12,42,26,127,127,10,21,5,
36020194272,-31,-45,-24,-33,61,27,-46,-8,
36020194272,10,40,26,-21,-32,15,12,4,
36020216656,12,10,10,42,66,2,19,0,
36020216656,-3,-29,-21,-120,-85,-37,-7,-1,
36020225378,2,-3,12,98,107,3,9,-4,
36020225378,-8,2,-1,-9,73,27,-22,2,
36020246574,-15,-5,-15,60,116,34,-29,0,
36020246574,-8,-15,-7,-69,-49,6,-24,-3,
36020261330,-19,-65,-50,-128,-92,-32,-30,-9,
36020261330,3,2,24,110,-74,-5,8,0,
36020276336,-11,-10,7,-36,-99,-12,-22,-3,
36020276336,8,33,13,67,99,16,8,4,
36020299047,17,10,1,85,42,-7,28,5,
36020299047,-14,-28,-10,-103,-128,-24,-18,-9,
36020306335,5,3,5,42,53,-19,12,0,
36020306335,-1,-27,-17,-50,-15,-7,-6,0,
36020315227,6,5,19,90,58,11,6,-1,
36020315227,-7,10,1,56,93,23,-13,-3,
36020329145,3,44,24,41,3,24,1,2,
36020329145,0,21,-20,-72,-21,6,-3,4,
36020336441,22,10,13,20,-77,-82,48,0,
36020336441,11,22,29,109,123,36,33,-1,
36020343908,-18,-7,-37,15,90,12,-38,2,
36020343908,-19,-30,-5,-37,14,40,-49,-7,
36020358880,15,22,27,96,65,-6,32,4,
36020358880,2,-11,-24,-104,-105,-23,-5,-3,
36020373915,11,15,8,78,96,-15,32,5,
36020373915,-13,-8,-5,77,127,54,-29,-2,
36020390385,-7,29,20,-74,-24,22,-23,-6,
36020390385,8,35,-7,105,2,4,18,3,
36020418975,2,-23,1,-84,-111,-47,7,-6,
36020418975,19,29,30,82,97,0,20,5,
36020426449,-7,-1,-9,50,87,30,-8,-3,
36020426449,-7,0,-8,-20,15,1,-26,-3,
36020456648,-1,29,2,-31,-73,6,3,-3,
36020456648,-6,-38,-29,-56,-40,-27,1,-3,
36020463805,5,17,14,-33,25,14,13,-3,
36020463805,0,10,6,93,45,11,3,-3,
36020471364,0,-2,-3,-23,-53,-1,-18,1,
36020471364,1,0,5,-100,-94,-13,2,-2,
36020516571,7,22,9,-7,-27,1,8,1,
36020516571,-2,-6,-21,-13,40,-4,-2,4,
36020524092,11,6,13,127,127,16,22,6,
36020524092,-34,-52,-22,-25,5,-1,-47,-6,
36020554123,4,21,23,-14,-77,-12,-3,-5,
36020554123,9,15,-18,-52,-1,17,6,-1,
36020584060,-5,-14,-5,-70,-99,-19,-4,-1,
36020584060,23,19,9,-16,-109,-35,45,0,
36020606368,-10,-10,-9,-42,-90,-5,-20,0,
36020606368,7,14,18,123,37,-3,7,3,
36020628870,-15,-57,-36,-128,-98,-47,-24,-5,
36020628870,5,-9,10,-40,-66,-19,13,4,
36020643846,-14,-32,-20,-3,15,-21,-14,-5,
36020643846,-9,-4,12,-7,-41,13,-3,-7,
36020651357,5,20,-6,47,-89,-17,1,1,
36020651357,7,-11,-7,-58,-22,-17,6,2,
36020666436,-7,-24,16,105,102,1,-2,-1,
36020666436,-34,-32,-13,12,117,50,-60,-5,
36020688903,2,-7,-12,-128,-128,-26,5,-1,
36020688903,6,-3,11,88,-7,-25,19,3,
36020703893,-9,-8,-11,-31,114,41,-17,0,
36020703893,-2,9,15,39,64,2,-6,-2,
36020711366,-4,-4,-26,-83,-37,-10,3,-3,
36020711366,-2,-19,-16,-64,-128,-38,-9,-2,
36020726369,-30,-38,-14,-111,-49,25,-63,-9,
36020726369,4,0,3,-33,-99,-12,3,-2,
36020741369,5,19,-13,-61,-58,-34,8,-4,
36020741369,3,-10,1,95,35,-3,21,1,
36020771628,-10,-24,-8,-4,44,5,-20,-1,
36020771628,-8,2,16,8,27,4,-9,-4,
36020780186,-1,21,-5,109,82,19,-2,2,
36020780186,3,19,9,-18,-40,14,7,-1,
36020801563,5,11,10,-53,-68,-5,7,1,
36020801563,16,23,8,36,51,-12,22,3,
36020809064,0,12,14,67,15,20,7,-3,
36020809064,-6,-14,-18,49,112,16,-23,2,
36020831513,5,-2,-11,-128,-33,-21,13,-3,
36020831513,10,16,-1,26,-69,3,19,-3,
36020861318,11,8,-6,54,28,-7,14,6,
36020861318,-6,7,6,-60,-128,-8,-5,-4,
36020876367,5,-13,-5,-1,66,-23,16,0,
36020876367,3,-6,8,62,-24,3,12,1,
36020884081,-17,-15,-22,61,118,7,-29,-5,
36020884081,-6,-24,-7,-117,-30,21,-9,-3,
36020891367,7,34,22,127,-7,-2,5,5,
36020891367,-15,-22,-14,-25,83,14,-32,-3,
36020906483,16,38,22,22,-39,10,20,-2,
36020906483,1,-15,-12,-18,12,-17,-2,5,
36020921277,11,15,28,127,50,10,24,1,
36020921277,-12,-13,-4,17,127,18,-23,-5,
36020936308,15,21,8,-89,-120,-20,25,3,
36020936308,5,-8,11,90,26,-16,5,-2,
36020943835,-5,4,-2,-21,-31,29,-12,-1,
36020943835,6,22,3,-40,20,-12,17,-3,
36020951369,2,9,2,92,127,28,1,4,
36020951369,-17,-23,-26,-128,-54,12,-26,-4,
36020958787,-2,-11,10,127,-66,-25,1,2,
36020958787,8,26,-2,-61,-35,-4,1,3,
36020966316,16,22,12,104,4,-16,39,3,
36020966316,-13,-48,-25,54,106,0,-28,1,
36020973769,-9,-6,10,-99,-46,27,-25,-3,
36020973769,-4,4,-14,-27,-20,-19,-10,-3,
36021018757,-4,-9,1,-86,-88,-4,-12,0,
36021018757,16,18,12,-86,-65,-17,33,1,
36021026240,3,6,-1,69,90,9,19,2,
36021026240,-4,-7,-13,27,-9,-3,-11,-3,
36021049032,-15,-35,-19,-55,-42,-24,-27,-9,
36021049032,5,-21,-21,-128,-128,-53,12,-1,
36021057541,14,-1,12,48,71,-20,25,0,
36021057541,-9,29,31,127,121,73,-9,-3,
36021071412,-11,-15,-16,44,47,5,-12,-3,
36021071412,-8,-1,15,40,52,23,-12,-3,
36021079027,3,10,21,-62,-108,30,2,-3,
36021079027,11,17,-3,72,127,-5,19,5,
36021086606,-25,-43,-8,-69,11,24,-40,-7,
36021086606,10,4,-10,-112,-71,-14,11,3,
36021101327,12,37,37,109,127,28,28,-1,
36021101327,-27,-9,-32,34,48,35,-52,-4,
36021116452,-23,-19,6,-48,-57,21,-41,-7,
36021116452,5,16,-7,-58,-67,-26,19,-2,
36021131364,-12,-71,-46,-84,-128,-54,-10,-3,
36021131364,17,9,37,72,-83,-18,28,0,
36021153817,11,49,31,127,127,45,15,10,
36021153817,-31,-29,-31,-65,36,34,-53,-7,
36021168877,15,-23,3,35,-44,-57,29,3,
36021168877,-4,-1,23,102,92,34,0,-3,
36021184008,-1,3,-11,-55,-62,5,-9,-3,
36021184008,-1,-21,-19,7,-40,-5,-3,2,
36021206327,-12,0,4,-65,-62,-2,-26,-8,
36021206327,11,41,7,39,103,14,24,5,
36021221327,3,17,6,92,127,29,6,2,
36021221327,-4,-14,-2,-101,-128,-18,-2,-5,
36021273866,-16,-32,-17,-65,-31,-9,-26,-6,
36021273866,6,46,30,21,10,22,5,0,
36021303868,15,35,28,127,127,24,31,6,
36021303868,-14,-5,-15,10,73,34,-29,0,
36021319095,-12,-6,-12,93,77,-2,-11,3,
36021319095,-11,-34,-11,-69,-22,18,-29,-4,
36021326336,2,1,1,-86,-33,-16,4,-4,
36021326336,11,12,-13,3,80,-4,13,2,
36021333903,6,21,9,-11,-74,-4,7,2,
36021333903,-4,-7,1,55,77,14,-2,-1,
36021341305,-10,-30,-39,9,69,-6,-17,-2,
36021341305,-6,-3,8,-80,-9,18,-13,-4,
36021349024,3,14,4,57,21,4,-4,1,
36021349024,15,14,-7,-96,-126,-13,20,-3,
36021356393,1,-27,9,79,30,-31,8,-3,
36021356393,-7,2,7,-39,93,20,-8,-4,
36021378778,1,14,-3,80,74,19,1,2,
36021378778,-17,-25,-15,50,17,3,-23,-2,
36021386396,8,3,-3,-128,-128,-21,11,2,
36021386396,2,2,2,62,47,-11,3,-3,
36021393752,-4,14,9,74,125,43,-7,0,
36021393752,-8,-13,-10,-115,-33,6,-15,-2,
36021401363,2,0,-19,-63,-70,-31,4,1,
36021401363,13,1,13,32,-3,-38,32,-1,
36021416263,2,10,13,49,67,-2,-4,2,
36021416263,-14,-7,-15,-46,92,34,-34,-6,
36021423959,-8,-16,-17,-86,-24,2,-11,-4,
36021423959,-2,-7,6,56,-87,-8,6,4,
36021461299,0,11,13,0,60,10,6,-2,
36021461299,7,29,11,27,14,4,8,-1,
36021468788,6,12,6,63,96,12,13,-1,
36021468788,-13,-32,-27,-59,-70,-22,-24,0,
36021551537,-9,-32,-6,-83,-110,-24,-14,-6,
36021551537,8,15,4,-37,-4,-12,8,2,
36021558875,13,42,17,59,-15,12,19,-2,
36021558875,-1,-6,1,44,31,5,7,-3,
36021581504,-16,-17,-6,0,31,14,-27,-2,
36021581504,-3,1,-4,-46,5,8,-3,0,
36021603897,19,19,16,-17,-44,-15,40,0,
36021603897,2,-15,-5,121,59,-12,12,1,
36021611316,-11,0,10,29,127,27,-15,0,
36021611316,1,25,4,59,112,38,-5,-1,
36021656595,13,20,10,120,114,-6,23,5,
36021656595,-18,-42,-23,-50,34,12,-30,-6,
36021663853,10,24,27,106,-42,-12,26,2,
36021663853,-3,-15,-13,64,127,4,-7,3,
36021671299,-18,-30,-18,-128,-116,5,-40,-3,
36021671299,20,31,25,67,16,-21,26,0,
36021686509,-4,3,-8,0,61,13,-6,-3,
36021686509,-2,-8,-15,-61,-42,-13,-1,-3,
36021693809,0,-9,6,44,35,18,3,0,
36021693809,-1,13,-7,55,70,15,4,-5,
36021708753,-4,10,-3,34,17,10,-7,1,
36021708753,-12,2,5,51,-67,7,-17,-2,
36021716336,-1,19,4,36,120,12,-17,0,
36021716336,-4,20,7,69,-35,13,-4,-6,
36021723961,-16,-35,-37,-14,-29,-21,-22,-1,
36021723961,-7,-28,-1,-121,-128,-9,-18,-2,
36021746342,27,28,28,36,-16,-22,51,2,
36021746342,3,10,0,62,127,21,5,6,
36021768772,-9,7,6,3,-15,49,-19,-9,
36021768772,6,12,-15,-29,11,-30,9,3,
36021776234,-18,-58,-9,19,-125,-14,-30,-8,
36021776234,5,20,6,-118,-34,-3,6,-2,
36021783994,8,26,27,127,50,7,16,2,
36021783994,-9,9,-10,-101,-15,17,-18,-5,
36021798920,10,-11,-28,-53,-41,-13,23,3,
36021798920,-3,-35,-4,90,104,-21,4,-1,
36021806336,-16,-19,2,-128,57,14,-30,-4,
36021806336,6,33,20,102,117,0,16,-2,
36021843801,-11,-19,-33,-27,20,12,-29,-1,
36021843801,-3,3,-5,4,-80,3,-13,-3,
36021851547,8,8,6,63,-50,-9,12,2,
36021851547,8,10,3,-40,20,-12,12,0,
36021873795,10,10,4,11,82,-10,14,5,
36021873795,-21,-46,-17,-73,-66,-2,-29,-8,
36021881542,16,30,31,84,41,-8,26,6,
36021881542,-5,2,13,51,9,24,-12,0,
36021926289,-9,12,-7,-40,-1,10,-8,-7,
36021926289,3,-12,-16,90,-33,-4,6,-2,
36021933862,-4,0,11,53,94,24,-5,4,
36021933862,-4,-12,-35,-98,-128,-33,-10,-7,
36021956277,-30,-33,-45,-116,-67,16,-60,-6,
36021956277,-9,-4,2,-94,-79,9,-27,-3,
36021963854,22,1,11,-22,-48,-28,35,-1,
36021963854,0,12,6,-56,79,9,2,-3,
36022046521,1,0,-29,-128,10,-20,2,-6,
36022046521,9,3,9,51,-49,-17,32,2,
36022061307,-4,-20,-26,-89,-102,-33,-13,-3,
36022061307,7,-1,28,104,127,15,16,-1,
36022076298,5,3,12,-29,-2,-16,8,-3,
36022076298,2,3,-1,23,24,-3,3,0,
36022083810,7,-7,-7,29,-34,-37,15,2,
36022083810,4,-15,6,22,109,16,3,-5,
36022091257,5,19,-8,-54,-81,-19,11,1,
36022091257,-4,-26,3,91,110,4,1,-2,
36022113984,-17,-56,-20,4,51,11,-23,-7,
36022113984,-7,0,-2,-128,-73,3,-13,-5,
36022128870,5,-12,-2,127,93,-29,16,4,
36022128870,3,24,19,-101,69,28,6,-1,
36022136441,23,40,62,87,-27,-24,37,4,
36022136441,9,11,11,28,77,27,7,5,
36022151554,-16,-1,-10,-73,109,33,-34,-2,
36022151554,-14,-21,-29,-128,2,36,-25,-3,
36022158888,8,5,-4,-64,-101,-38,12,0,
36022158888,9,-1,-5,13,-36,-25,16,-2,
36022166573,-5,-31,-24,-112,-85,-25,1,-1,
36022166573,9,-13,8,-7,-107,-26,12,0,
36022181245,-17,-23,-13,33,-40,12,-33,-4,
36022181245,2,20,5,45,71,22,2,0,
36022188798,3,-3,-2,72,59,4,8,5,
36022188798,-7,-20,-19,-98,26,-8,-4,0,
36022196491,1,32,31,110,-5,-3,1,-2,
36022196491,-8,-13,-17,-95,-51,-4,-17,-7,
36022218868,1,0,16,127,34,2,7,0,
36022218868,0,-4,-3,61,107,11,-8,2,
36022248951,-3,-4,-13,-102,-49,-17,-2,-6,
36022248951,11,25,11,80,81,-13,31,6,
36022323951,-10,-17,-14,60,127,13,-24,-3,
36022323951,-1,-9,-19,-123,-128,-47,3,-6,
36022383875,26,55,47,127,111,-7,55,7,
36022383875,-23,-19,-21,-10,46,53,-44,-5,
36022406313,-10,-5,-2,-76,-40,30,-20,-7,
36022406313,0,-2,-12,-57,-104,-13,-3,2,
36022421541,10,23,4,79,96,32,24,7,
36022421541,-26,-61,-43,-105,-25,-21,-44,-8,
36022436488,5,1,13,-86,-128,-8,5,-4,
36022436488,1,14,2,127,127,9,2,1,
36022466499,0,-34,-23,98,-28,-21,2,-2,
36022466499,-15,-18,1,-43,-58,20,-19,-5,
36022489089,2,4,-3,-128,-99,4,-1,-3,
36022489089,20,22,19,127,18,-26,37,4,
36022496552,6,18,-17,-64,-77,-4,13,3,
36022496552,-10,-46,-17,-27,-93,-35,-8,-2,
36022511315,-14,-22,-31,-128,10,7,-21,-4,
36022511315,14,33,18,-45,-80,-17,22,5,
36022533966,14,22,5,4,26,-4,18,4,
36022533966,6,6,6,-98,-74,-11,4,-2,
36022556356,-2,5,-3,-46,-60,-8,2,-6,
36022556356,6,8,6,127,50,0,7,6,
36022586321,-6,4,5,-20,9,21,-22,1,
36022586321,-11,-32,-26,80,127,-11,-6,-6,
36022609020,0,-21,-20,-41,67,4,2,0,
36022609020,-10,-6,-12,-34,-58,1,-16,-2,
36022616476,1,-3,-6,-54,-42,-10,-3,-3,
36022616476,-3,-19,-5,-13,55,7,-8,-4,
36022638913,4,7,7,127,8,-22,16,-1,
36022638913,-9,2,8,86,99,24,-20,-4,
36022646550,-25,-53,-47,-69,106,7,-31,-7,
36022646550,13,16,2,-112,9,8,19,3,
