timestamp,C1,C2,C3,C4,C5,C6,C7,C8,
142007090333,-4,-11,-22,-23,-9,-9,-4,-5,
142007090333,-4,2,11,12,-3,-6,-5,-8,
142007104606,2,-1,-11,-15,-6,2,3,1,
142007104606,0,3,17,45,13,4,0,2,
142007119732,-4,6,19,8,13,2,-2,-4,
142007119732,-2,-9,-21,-19,-14,-5,-1,-1,
142007134496,4,-6,-18,-21,-19,-9,-1,2,
142007134496,-1,1,4,-15,10,-1,-3,-5,
142007141962,-5,-2,3,16,0,1,0,-2,
142007141962,0,-1,-2,-6,0,-2,-4,1,
142007171958,-1,-2,-2,-11,-5,2,2,2,
142007171958,2,2,7,23,19,4,1,2,
142007196588,-2,-3,-6,-7,-10,-8,-6,-6,
142007196588,6,-5,-7,-8,5,4,4,1,
142007202018,-8,-5,-5,-11,-21,-11,-9,-8,
142007202018,2,-1,-7,-28,-7,4,6,3,
142007232628,2,6,29,44,20,3,1,2,
142007232628,-8,2,2,-28,-4,3,-3,-4,
142007262097,3,15,18,7,29,8,-1,2,
142007262097,1,0,-8,8,-4,1,1,1,
142007271500,6,3,5,2,10,0,-1,2,
142007271500,-8,-14,-21,-23,-21,-6,-4,-7,
142007276936,-8,2,3,-12,-13,-9,-2,-4,
142007276936,-3,-1,3,20,18,4,0,-1,
142007292554,0,-2,-14,-17,-11,-6,-3,0,
142007292554,6,-6,-15,-35,-7,1,2,2,
142007299645,-9,-2,14,19,-7,-3,-5,-5,
142007299645,-1,7,-1,-23,2,1,-4,-2,
142007322123,7,2,-1,13,5,1,2,3,
142007322123,2,7,17,6,10,4,0,0,
142007337074,-8,-13,-22,-27,-16,-3,0,-4,
142007337074,2,8,18,34,15,1,-2,-1,
142007344484,-3,-3,-8,-11,-3,-2,-4,-1,
142007344484,0,-6,-15,-15,1,0,1,-1,
142007367123,2,-7,-8,-20,-10,2,0,-2,
142007367123,-5,-4,5,1,-10,-9,-4,-1,
142007374497,-7,6,16,14,0,3,1,-3,
142007374497,-1,-1,-5,-1,7,2,1,-1,
142007391079,10,1,14,-3,5,11,9,6,
142007391079,-13,8,13,24,3,-5,-8,-10,
142007404570,8,2,5,13,11,-1,1,3,
142007404570,-4,-10,-22,-42,-17,-3,0,-3,
142007412040,0,-2,1,6,9,-5,-4,2,
142007412040,2,-1,-3,-3,-12,-2,0,1,
142007427016,-1,-4,-9,-9,-9,-1,0,-1,
142007427016,1,0,-4,-22,0,-1,3,1,
142007457029,9,8,9,20,11,8,5,5,
142007457029,-4,0,0,1,-4,-2,0,-2,
142007472031,1,-3,-5,-20,-12,0,0,1,
142007472031,-2,-9,-9,3,16,-2,-5,-1,
142007479464,-4,-1,-13,-14,-11,-3,-3,-4,
142007479464,7,8,22,18,-5,5,6,4,
142007487242,-7,-7,-11,-8,-1,-3,-3,-2,
142007487242,-1,-7,-18,1,0,-3,-1,0,
142007503192,3,5,13,10,-2,-3,-2,0,
142007503192,-4,6,12,3,-9,-2,-3,-3,
142007509516,-3,-10,-12,-9,-10,-5,-3,-2,
142007509516,-1,-1,-2,-2,5,-3,-3,0,
142007539589,-1,-3,-3,8,5,1,0,-2,
142007539589,3,-6,-18,-21,-10,1,2,0,
142007546980,-10,-1,14,18,15,1,-4,-6,
142007546980,-2,2,2,-30,-11,-4,0,-2,
142007562300,-1,-13,-18,-21,-22,-7,-1,-2,
142007562300,-5,4,11,7,14,1,-6,-5,
142007578345,-2,-2,-7,-10,1,1,2,2,
142007578345,0,2,13,30,-7,-4,-4,-2,
142007584786,3,-2,-8,-21,-14,2,5,1,
142007584786,-13,-2,6,26,13,-9,-11,-11,
142007614471,5,9,9,-4,-6,2,2,3,
142007614471,0,-1,-4,2,-4,-1,-2,1,
142007629570,1,7,17,26,11,-2,1,1,
142007629570,4,3,4,14,7,6,1,2,
142007644432,-4,-13,-14,-16,-8,-9,-4,-2,
142007644432,3,4,2,6,-1,2,4,4,
142007652118,0,2,4,-6,3,-1,0,0,
142007652118,-5,-8,-11,-3,-4,-1,-3,-5,
142007666917,2,2,3,-22,-5,0,2,2,
142007666917,-4,-6,-9,-6,-7,-2,-2,-2,
142007682028,1,4,10,3,5,2,0,0,
142007682028,6,1,-6,16,18,9,5,2,
142007689418,-2,-7,-9,-23,-16,-6,-5,-5,
142007689418,-3,4,9,16,5,-4,-3,-2,
142007704386,1,-7,-21,-37,-15,-3,-3,-1,
142007704386,-2,-5,0,18,9,0,0,-2,
142007711848,-8,-5,3,-6,-9,-1,-1,-4,
142007711848,2,1,-10,-14,-1,-7,-2,-1,
142007734661,-1,-6,-13,-7,-5,0,2,1,
142007734661,1,-8,-22,-20,-7,-1,0,0,
142007749368,1,3,19,23,16,5,4,3,
142007749368,-7,4,8,-19,-1,-2,-3,-7,
142007771992,-1,-3,-7,5,-9,-4,-1,0,
142007771992,1,4,9,15,9,5,3,1,
142007801878,1,-3,-5,-2,-3,-4,-1,0,
142007801878,-3,-7,-17,-22,-12,-5,-3,-1,
142007809413,-1,-3,-3,2,8,3,-4,-5,
142007809413,4,8,19,26,9,4,2,1,
142007816870,-2,0,1,5,0,-6,-7,-2,
142007816870,-1,3,10,28,1,1,1,0,
142007846887,6,4,15,29,9,2,3,4,
142007846887,-2,-6,-15,-23,-11,-3,2,-1,
142007869510,0,-2,-5,-27,-15,-6,-1,-2,
142007869510,-6,1,2,16,8,-4,-6,-5,
142007876953,-4,-9,-2,1,-4,-1,-2,-2,
142007876953,-6,-1,-4,-10,-5,-9,-8,-7,
142007891896,4,1,10,25,7,7,3,5,
142007891896,4,1,-2,-8,-5,-1,-1,0,
142007899503,-9,-9,-25,-41,-18,-12,-8,-7,
142007899503,3,-1,3,17,14,4,1,1,
142007907056,5,13,23,20,7,4,2,2,
142007907056,-11,-11,-17,-49,-19,-10,-9,-10,
142007921877,1,-7,-14,4,-8,-8,-1,0,
142007921877,4,8,4,16,20,6,4,3,
142007929537,-1,-11,-16,-24,-8,-2,0,1,
142007929537,-2,-1,2,11,7,0,0,0,
142007951901,5,8,6,-8,0,-4,-3,1,
142007951901,-2,-1,1,-23,-9,2,4,1,
142007959656,-6,-1,10,39,9,0,-4,-3,
142007959656,0,-7,-15,-10,-6,0,1,0,
142007974697,5,3,2,14,6,6,7,3,
142007974697,-5,8,17,25,27,5,-4,-4,
142007989755,7,-3,-16,-16,-15,-1,4,6,
142007989755,-8,0,18,14,0,-3,-1,-6,
142008004457,-7,-8,-13,-17,-12,-3,-4,-8,
142008004457,8,-5,-4,8,-2,1,4,6,
142008011890,-3,-4,-5,-7,-9,-4,-5,-3,
142008011890,0,-3,-2,-12,-3,-3,2,2,
142008034467,5,1,-1,11,5,2,0,1,
142008034467,-9,-6,7,18,2,-4,-4,-4,
142008041888,-1,1,5,-3,2,1,1,-2,
142008041888,0,-6,-19,-24,-13,-1,1,0,
142008049401,-6,-9,-9,-12,-14,-8,-4,-4,
142008049401,-2,4,7,22,8,-1,-5,-2,
142008056915,1,4,8,4,6,6,0,-2,
142008056915,-4,-2,4,-8,-9,-7,2,-1,
142008072153,1,5,4,-1,2,-2,-1,1,
142008072153,4,1,-2,22,26,7,2,2,
142008087070,-6,-14,-24,-32,-20,-6,-5,-3,
142008087070,3,2,13,12,11,3,0,2,
142008094424,-3,1,5,7,1,2,0,-2,
142008094424,-3,-7,-9,-9,-13,-8,-6,-4,
142008101877,-3,-1,4,-1,4,4,0,-1,
142008101877,-9,-7,-11,-13,-11,-8,-7,-7,
142008109643,12,18,20,15,7,8,9,10,
142008109643,-2,-7,-9,-23,-11,-3,-3,-1,
142008139568,-10,3,22,48,14,-2,-6,-5,
142008139568,4,3,-9,-33,-15,-2,-3,1,
142008146880,-3,-10,-14,-10,2,-1,-3,-3,
142008146880,-2,-8,-19,-23,-16,-7,-5,-5,
142008162047,8,6,16,31,19,3,2,7,
142008162047,-4,1,9,-2,-4,1,0,-3,
142008169478,-4,-6,-13,-11,-6,-9,-5,-3,
142008169478,-2,-2,-3,-28,-7,-2,-2,-5,
142008184598,-6,-6,1,10,-7,-4,-3,-6,
142008184598,3,1,10,27,19,4,2,2,
142008199443,7,11,5,8,13,7,5,3,
142008199443,-1,-4,-10,0,-7,1,-3,-1,
142008206993,-4,-9,-22,-34,-17,-8,-3,-4,
142008206993,0,-2,10,34,23,2,0,3,
142008229444,0,7,9,-26,-13,2,3,-2,
142008229444,1,-4,-10,2,5,-6,0,0,
142008237100,-2,2,11,20,5,4,0,-1,
142008237100,-1,-4,-3,-27,-23,-7,-3,-1,
142008244502,-2,-8,-9,7,-3,0,-2,-1,
142008244502,2,2,7,11,10,-1,-2,0,
142008251891,2,5,5,-16,-9,0,1,1,
142008251891,4,8,12,15,24,7,4,5,
142008259709,-5,-3,3,5,-5,-4,-4,-6,
142008259709,0,-2,-14,-16,-6,1,1,0,
142008281842,7,22,30,26,15,3,3,4,
142008281842,-2,-8,-11,-7,1,5,2,1,
142008289648,-7,-13,-20,-32,-15,-13,-9,-3,
142008289648,4,2,6,5,-5,-4,-2,-1,
142008296913,-3,-6,-7,-5,7,1,0,-1,
142008296913,3,4,2,18,1,4,3,0,
142008319493,-4,0,4,-3,-1,-4,0,-3,
142008319493,0,-2,-10,10,-1,-1,-2,-2,
142008334428,-5,-4,1,-14,-5,-3,-5,-3,
142008334428,-1,3,-2,15,2,-2,-2,-2,
142008349617,-4,-1,-3,1,-5,-3,-2,-2,
142008349617,2,-6,-13,-15,-4,-3,-3,0,
142008372021,-3,0,2,12,3,-2,-2,-2,
142008372021,1,8,6,11,18,4,-1,2,
142008379473,-3,-8,-4,-14,-9,-5,-4,-3,
142008379473,-3,1,-1,-7,-6,-4,-2,-5,
142008394480,4,0,-3,9,7,4,4,2,
142008394480,-2,2,12,22,11,6,0,1,
142008409393,-4,0,11,9,2,-1,-4,-2,
142008409393,-5,1,0,1,-8,-2,0,-2,
142008417102,0,1,0,-2,-2,-3,-4,-1,
142008417102,-3,-16,-24,-27,-6,-2,0,-1,
142008424478,-5,-10,-15,-25,-13,-7,-4,-4,
142008424478,-4,6,17,42,12,-2,-3,-1,
142008432052,-1,0,0,-14,0,3,-3,-4,
142008432052,0,-11,-21,-23,-9,-2,0,-1,
142008446971,2,3,3,13,2,-4,-2,-2,
142008446971,0,-7,-18,-35,-22,-8,-1,-3,
142008461899,5,0,0,23,11,5,4,5,
142008461899,-5,1,15,9,2,1,-2,-6,
142008469629,-13,-4,-4,-17,-18,-13,-9,-8,
142008469629,9,6,9,9,2,5,1,5,
142008476911,-5,9,18,12,3,0,0,-2,
142008476911,-1,-1,-5,4,4,1,-1,0,
142008491865,-5,-5,-6,-11,-15,-5,-8,-4,
142008491865,4,1,-1,-7,12,5,0,2,
142008506900,-2,-6,-1,5,-10,-1,-2,1,
142008506900,-3,-1,-3,5,6,4,0,0,
142008514422,7,7,5,10,7,0,2,4,
142008514422,-2,1,4,-2,-7,-1,2,-2,
142008529616,-4,-8,-9,-13,-4,-4,-1,-2,
142008529616,0,-9,-21,-8,-13,-4,0,0,
142008537098,0,11,21,11,0,3,2,0,
142008537098,2,4,10,18,14,2,-1,1,
142008544670,3,-3,-7,-21,-9,-2,2,2,
142008544670,-6,-9,-17,-19,-12,-6,-3,-4,
142008552113,-2,-13,-12,-4,-3,-1,-3,-3,
142008552113,-3,17,35,40,17,2,1,-1,
142008566954,-2,0,-4,-2,-2,-1,-3,-2,
142008566954,-2,-8,-17,-10,-13,-8,-5,-2,
142008582088,1,-4,-8,-6,10,0,1,-1,
142008582088,-9,-5,13,-8,-21,-7,-3,-5,
142008597094,1,0,-7,16,11,1,1,0,
142008597094,-3,1,7,-14,-3,0,-3,-4,
142008604453,-7,-6,-7,18,6,-5,-4,-3,
142008604453,1,2,-4,-23,-12,-4,-2,1,
142008619688,5,2,0,3,8,4,3,2,
142008619688,0,-3,-3,-10,4,4,3,0,
142008626918,-4,4,6,18,-6,-5,-4,-4,
142008626918,0,-1,-4,-5,12,2,2,3,
142008649642,-5,-5,-2,6,-9,-5,-4,-4,
142008649642,0,-1,-3,-11,0,1,0,1,
142008656926,1,-6,4,7,4,2,0,2,
142008656926,-15,6,10,20,-3,-4,-6,-9,
142008694510,8,1,-1,-7,-3,4,9,8,
142008694510,-7,-4,-6,-20,-13,-9,-6,-4,
142008701866,1,-7,-8,20,8,1,-1,-2,
142008701866,5,6,9,14,11,-1,2,1,
142008709591,-3,10,24,16,2,0,-1,-3,
142008709591,0,-4,-4,8,-1,-2,-4,-2,
142008731895,-8,-7,-7,-13,2,-1,-2,-3,
142008731895,-11,-7,-1,7,-2,-1,-3,-5,
142008739372,4,4,5,-4,-2,-2,3,3,
142008739372,7,0,-9,-5,-1,4,5,4,
142008746839,-6,-3,8,6,-17,-5,-4,-3,
142008746839,0,4,7,3,9,-2,-1,0,
142008754413,-5,-6,-10,-16,-10,-2,-3,-3,
142008754413,-2,-3,0,18,14,2,0,-2,
142008769622,5,8,8,0,3,-1,-2,0,
142008769622,-4,-7,-10,-16,-19,-6,-3,-3,
142008784534,1,-5,-14,-26,-6,0,3,-1,
142008784534,-5,-5,-10,-4,-3,-2,-4,-4,
142008791960,-1,4,12,13,20,5,1,0,
142008791960,-1,1,-3,-4,-6,0,1,0,
142008799483,-5,-12,-22,-35,-15,-7,-5,-4,
142008799483,7,0,8,20,-2,-1,2,3,
142008814496,-5,5,13,-2,7,1,1,-3,
142008814496,6,5,11,24,8,4,1,2,
142008829393,-9,0,-4,-6,-4,0,-4,-7,
142008829393,1,-20,-31,-25,-10,-4,-3,-1,
142008844421,0,-4,8,23,23,9,1,2,
142008844421,-6,-6,-13,-14,-11,-5,-3,-4,
142008852100,4,-2,-7,-8,-5,1,3,3,
142008852100,-1,4,8,25,19,7,3,1,
142008881954,1,2,4,13,-3,1,-1,0,
142008881954,-2,-5,-16,-35,-12,-8,-3,1,
142008897027,2,10,12,0,4,0,1,1,
142008897027,3,-6,-11,-6,2,2,1,0,
142008919671,-5,-6,-14,-27,-9,-7,-6,-5,
142008919671,6,4,6,-7,-7,0,2,1,
142008926982,-7,-7,3,30,20,3,-2,-5,
142008926982,0,6,8,-5,-10,-5,-3,-3,
142008934432,-1,4,6,8,9,6,0,-4,
142008934432,0,-5,-9,-7,-11,-8,0,0,
142008942128,1,-6,-17,-8,-7,-1,4,2,
142008942128,-3,6,12,5,0,-1,-3,-1,
142008956906,0,1,10,7,5,-6,-2,-1,
142008956906,-3,2,-2,-2,-7,5,0,-1,
142008971902,5,0,1,0,9,4,4,2,
142008971902,-7,-8,-1,17,3,-5,-6,-6,
142008979535,-1,-8,-17,-30,-15,-6,-2,-3,
142008979535,-1,-1,-7,-7,-3,-3,-2,-3,
142008994441,1,-1,4,2,1,2,3,3,
142008994441,-2,-5,-8,-9,-10,3,1,0,
142009001935,-1,4,8,19,15,1,0,1,
142009001935,0,6,11,17,10,3,3,-3,
142009016873,4,-7,-22,-25,-13,-2,0,0,
142009016873,-3,-4,0,-17,-7,-2,0,0,
142009039532,-2,-4,-12,-19,-11,-9,-3,-3,
142009039532,-4,1,13,14,18,5,-1,-2,
142009047187,-6,-8,-14,-23,-27,-10,-8,-9,
142009047187,-2,-9,-7,-4,9,1,0,0,
142009061937,6,9,12,0,7,6,6,6,
142009061937,-3,0,-2,1,-5,-4,-2,-2,
142009069614,3,-3,-6,-7,6,2,-1,1,
142009069614,-3,8,11,8,-8,-5,-2,-4,
142009084389,-1,-5,-12,-27,-20,-4,-3,-4,
142009084389,-4,-1,4,11,5,1,1,-1,
142009092001,-10,-3,5,22,12,0,-6,-6,
142009092001,-4,-3,-5,-26,-9,-2,-1,-2,
142009114371,2,-4,-14,3,-2,0,1,3,
142009114371,-3,-6,-9,-20,-11,-5,-2,-4,
142009122183,6,3,1,9,6,4,4,5,
142009122183,3,3,8,3,11,7,1,1,
142009137170,-8,-3,4,6,-6,-3,-3,-7,
142009137170,6,4,2,14,1,-6,-5,1,
142009144679,3,5,11,-6,10,6,3,2,
142009144679,-2,-11,-25,-2,-19,-8,-4,-2,
142009152023,4,2,9,0,4,2,0,2,
142009152023,-13,5,15,-4,-4,0,-6,-9,
142009166876,0,-5,-11,1,-1,-9,-4,-1,
142009166876,-4,-4,-1,-5,-6,-2,-3,-2,
142009174413,0,8,13,4,-1,-1,2,1,
142009174413,-2,-6,-12,-19,-11,-6,-2,-1,
142009197120,5,1,6,2,9,6,3,3,
142009197120,-11,-1,10,10,-7,-4,-7,-8,
142009204660,2,-5,-11,-4,-5,-1,1,0,
142009204660,-3,1,13,23,11,1,-2,-2,
142009212116,3,3,-6,0,-3,-4,1,2,
142009212116,0,-7,-20,-26,-5,-2,0,-1,
142009219431,-7,-3,2,-28,-18,-5,-4,-6,
142009219431,6,11,19,36,23,10,5,3,
142009234647,-2,1,6,6,8,-1,-3,-1,
142009234647,-2,-9,-20,-35,-21,-3,-1,-1,
142009249380,-4,6,19,33,15,9,1,-1,
142009249380,3,0,-1,-19,-5,-2,3,3,
142009264370,-6,-5,-9,-17,-12,-5,-5,-5,
142009264370,3,-1,-13,-21,0,1,2,3,
142009279528,7,3,9,34,11,1,4,3,
142009279528,-7,-2,6,1,-3,0,-3,-5,
142009294568,1,1,3,-6,-12,0,1,0,
142009294568,-11,-13,-10,7,1,-4,-5,-7,
142009309368,2,9,13,16,3,4,3,3,
142009309368,6,-1,-8,-18,4,6,5,6,
142009324569,4,2,12,28,13,3,0,0,
142009324569,-6,-5,-16,-29,-21,-14,-7,-5,
142009339483,-2,4,10,10,6,-4,-5,-4,
142009339483,-2,-5,-10,4,-7,-5,0,0,
142009346921,-5,-4,-3,2,1,-2,-4,-3,
142009346921,-3,-3,-5,-19,-10,-4,-1,-3,
142009354407,1,-1,-9,-13,-13,-4,-1,1,
142009354407,-1,0,5,-6,2,-1,-2,-3,
142009361949,-3,4,5,19,13,4,-1,-2,
142009361949,-1,-4,2,-6,-8,-3,-1,-1,
142009369588,-6,-8,-24,-23,5,2,-3,-3,
142009369588,7,7,17,15,-11,-4,4,4,
142009384608,1,2,2,9,13,-1,-1,-1,
142009384608,-2,-3,-2,-12,-1,0,0,1,
142009399452,-2,0,0,-9,-8,-3,-3,-4,
142009399452,-9,-8,-11,-9,-8,-2,-3,-6,
142009407120,-2,-2,-4,2,-4,-4,0,0,
142009407120,-3,2,5,14,8,0,-3,-2,
142009422108,2,-2,3,2,7,5,2,1,
142009422108,-3,-5,-4,-14,-14,-6,-4,-2,
142009436937,2,-2,-10,-23,-15,-3,1,0,
142009436937,-1,-3,-3,-8,-3,0,0,-1,
142009451937,1,2,14,22,4,-1,1,1,
142009451937,-3,0,0,-7,-1,-2,-3,-2,
142009459531,7,1,-11,-7,-5,-3,1,4,
142009459531,-5,0,2,7,0,-5,-7,-5,
142009481904,3,-10,-16,-23,-1,4,3,3,
142009481904,-2,-3,-2,11,2,-1,-3,-4,
142009489437,-3,0,6,-1,-4,0,1,-2,
142009489437,-3,-2,0,9,0,-6,-3,-3,
142009504523,-4,-7,-11,-13,-4,-3,-3,-2,
142009504523,12,10,1,-21,-6,1,9,8,
142009512024,-9,0,18,30,4,5,-2,-6,
142009512024,-2,4,4,9,6,0,-2,-1,
142009519597,-2,-10,-15,-25,-17,-5,-1,-2,
142009519597,-5,-10,-15,-18,-2,-3,-3,-4,
142009527013,-19,6,30,59,16,-4,-10,-12,
142009527013,1,1,7,-12,-9,3,3,3,
142009534491,-2,-8,-18,-11,-5,-7,-2,-2,
142009534491,-8,-8,-9,-9,-9,-5,-7,-6,
142009549662,11,7,2,-11,-5,3,6,8,
142009549662,-2,0,3,5,6,1,-4,-2,
142009557142,-2,-6,-22,-51,-19,-5,-2,0,
142009557142,4,8,19,44,23,4,0,1,
142009571908,1,4,8,4,0,6,2,1,
142009571908,-5,-12,-18,1,-7,-5,-4,-3,
142009579473,-1,-6,-12,-15,-6,-5,0,-2,
142009579473,11,11,13,40,10,9,8,9,
142009594460,0,-2,-5,-10,-5,-1,-4,-5,
142009594460,-7,-3,4,9,5,-1,-1,-4,
142009602174,-6,-2,-2,-12,-4,-8,-5,-6,
142009602174,-6,-11,-17,-26,-16,-6,-4,-7,
142009624585,3,4,0,-4,-4,-2,0,2,
142009624585,5,5,8,18,18,5,1,5,
142009631929,-6,-17,-24,-32,-10,-4,-4,-4,
142009631929,-7,-10,-17,-32,-21,-13,-6,-5,
142009639714,5,11,16,53,20,6,4,4,
142009639714,-3,-3,4,-24,-2,4,3,-1,
142009654311,-8,-6,-6,-8,-4,-5,-4,-5,
142009654311,3,10,8,44,15,2,1,0,
142009661881,1,-6,-2,-1,-1,-2,0,2,
142009661881,3,1,-2,-12,-9,-3,0,0,
142009669443,-9,-9,-12,-19,-7,-4,-4,-5,
142009669443,0,-3,-7,-18,-8,-1,0,1,
142009677180,2,11,20,30,12,5,-1,1,
142009677180,-6,-13,-25,-30,-19,-10,-6,-6,
142009684405,6,-1,10,22,12,7,4,6,
142009684405,-11,4,9,-12,-5,-5,-8,-9,
142009691929,-2,-10,-19,-26,-11,0,0,-1,
142009691929,1,3,12,34,19,-1,-1,1,
142009707126,-3,1,1,-9,-12,-5,-3,-3,
142009707126,2,-9,-25,-26,-10,1,4,0,
142009714493,2,10,24,45,24,3,-2,0,
142009714493,-10,-9,-8,-16,-21,-8,-5,-5,
142009729460,1,0,-1,5,4,-1,0,0,
142009729460,0,1,6,1,-3,0,-2,-1,
142009736960,-5,-9,-26,-44,-17,-5,-5,-5,
142009736960,7,4,15,41,17,6,4,5,
142009744642,-1,9,8,6,6,2,2,2,
142009744642,0,-6,-2,-23,-8,-2,0,1,
142009752163,-9,-15,-27,-6,-18,-6,-3,-6,
142009752163,3,2,0,-3,2,-5,-1,3,
142009766895,4,10,21,23,12,10,4,2,
142009766895,-3,-1,-2,15,5,-4,-2,-3,
142009774382,5,3,7,8,7,-1,0,0,
142009774382,-1,-10,-22,-39,-12,3,1,-2,
142009804575,2,-1,-4,-3,-6,-11,-4,0,
142009804575,7,4,4,11,7,6,3,4,
142009811900,-10,1,13,-4,-3,-2,-1,-5,
142009811900,-6,-3,-9,-17,-16,-7,-4,-5,
142009819407,6,-5,-17,-13,-3,-1,-1,1,
142009819407,0,0,10,3,-2,1,0,1,
142009826997,2,4,8,13,1,1,0,-1,
142009826997,-1,8,14,10,20,3,-1,-1,
142009841912,-4,-8,-16,-17,-20,-4,-4,-2,
142009841912,4,-2,1,20,10,1,0,2,
142009849379,-6,0,9,37,13,-4,-2,-5,
142009849379,-2,1,1,-12,-13,1,4,1,
142009856941,0,-4,-11,-21,-3,-3,1,1,
142009856941,-3,-6,-9,-3,-2,-2,-3,-2,
142009864560,-3,-7,-1,-3,4,-1,0,-1,
142009864560,-5,16,29,31,4,-1,-5,-3,
142009871996,1,-4,-4,-2,4,-1,0,1,
142009871996,-3,-5,-9,-11,-10,-3,-3,-2,
