timestamp,C1,C2,C3,C4,C5,C6,C7,C8,
4682155326,-11,-13,-50,76,-78,-11,22,-1,
4682155326,0,5,53,-19,2,7,0,3,
4682162893,-5,4,10,-37,-22,-5,-15,-11,
4682162893,-4,-45,-30,-56,-26,-10,-21,-2,
4682185274,7,17,30,-26,61,-5,3,9,
4682185274,-1,27,21,100,-51,1,16,3,
4682192847,-6,-26,-67,-60,-37,2,-1,-5,
4682192847,10,22,30,37,-26,9,-2,8,
4682202348,-1,0,7,34,55,-6,0,-4,
4682202348,-8,-14,-33,-78,-33,-10,-20,-6,
4682215274,6,17,8,61,52,18,27,14,
4682215274,-11,-21,-18,21,28,-17,0,-11,
4682225186,-2,4,10,-39,-67,-10,-25,-6,
4682225186,-1,-12,-23,20,102,14,-12,-5,
4682245258,-5,-48,-15,-98,-12,-6,-22,-14,
4682245258,16,23,39,-37,12,-2,-9,11,
4682252764,-10,-7,-7,76,-55,5,18,1,
4682252764,-4,-19,-27,-11,-28,-16,-11,-7,
4682277332,6,42,52,72,46,10,5,4,
4682277332,-4,-11,-28,-6,-21,-7,13,-2,
4682298286,-1,-54,-62,-84,28,-12,-33,-7,
4682298286,11,63,69,57,-43,2,19,11,
4682305524,-11,-41,-54,-63,58,13,16,-3,
4682305524,-4,2,18,-53,-18,-19,-48,-13,
4682329796,10,25,-2,-16,-67,-12,4,11,
4682329796,-6,28,8,117,24,13,65,8,
4682335319,-23,-74,-84,-60,70,-10,-42,-29,
4682335319,19,23,52,-91,50,13,-19,13,
4682344152,11,25,42,46,-77,-16,34,18,
4682344152,-11,-2,-47,-11,2,7,-6,-12,
4682357947,4,10,27,9,36,8,4,0,
4682357947,3,-22,-13,-13,-39,-11,-9,-1,
4682365278,3,12,26,4,86,9,-6,-4,
4682365278,-5,-4,-5,4,-88,-15,9,-3,
4682372768,7,28,32,116,20,10,1,6,
4682372768,-10,14,27,-79,47,-7,-7,-13,
4682389728,-2,-8,-4,20,-77,-14,-16,3,
4682389728,10,19,-15,-51,39,21,-2,6,
4682417745,-7,-72,-75,53,40,-18,3,-4,
4682417745,6,12,48,-59,-61,16,-14,4,
4682426711,4,49,48,88,63,5,4,-1,
4682426711,-15,-68,-102,-83,-33,-14,4,-8,
4682432875,1,14,66,-48,-2,1,-27,-2,
4682432875,8,26,29,-17,83,-1,25,16,
4682440231,-8,7,35,100,-97,4,31,-5,
4682440231,-11,-41,-56,-22,45,-2,-13,-14,
4682449832,1,-24,49,-107,-49,-2,-74,-12,
4682449832,3,45,42,78,-65,3,32,16,
4682470341,-7,-11,-1,-36,-62,-19,-16,-6,
4682470341,0,-12,-40,51,-5,-6,-8,-1,
4682479357,-6,22,3,37,8,13,15,1,
4682479357,-5,-14,-6,-14,-63,-15,8,-4,
4682493070,1,-11,7,-53,51,10,-22,-6,
4682493070,3,11,14,102,62,1,24,2,
4682500486,-12,-68,-87,-128,26,-20,-44,-16,
4682500486,21,67,104,29,77,19,-21,8,
4682515477,-5,29,-40,38,-123,2,52,6,
4682515477,-25,-106,-83,-46,4,-8,-50,-32,
4682522960,14,37,69,69,-45,-1,-1,14,
4682522960,4,44,19,45,-21,10,73,14,
4682545489,-27,-94,-99,-113,31,-29,-62,-37,
4682545489,9,19,69,13,16,11,-18,14,
4682568023,2,16,7,103,-69,15,51,11,
4682568023,-9,14,30,-6,-90,3,18,-6,
4682575452,4,-19,-26,-62,95,2,-38,-7,
4682575452,6,-4,15,-50,-82,-13,-47,-5,
4682590297,-5,-1,33,-45,41,-11,-24,-5,
4682590297,-3,-11,-51,25,58,-4,5,3,
4682605453,-4,-53,-36,-75,-17,-2,7,-8,
4682605453,11,42,82,64,124,7,-25,0,
4682612941,-1,-5,-33,-8,-94,-11,23,1,
4682612941,-4,-3,10,-37,23,15,-10,-5,
4682627692,-5,-2,-20,13,4,-11,-11,-3,
4682627692,-4,-24,39,-7,56,-2,-16,-6,
4682642895,2,29,30,4,-89,5,18,1,
4682642895,-12,-39,-73,1,54,-9,-22,-14,
4682650338,10,67,110,104,-40,11,23,12,
4682650338,-7,-50,-96,-26,-24,-7,19,-8,
4682665430,0,-7,27,-89,40,-5,-33,-2,
4682665430,8,28,32,51,-12,11,25,15,
4682673025,-17,-52,-29,-83,79,-18,-57,-30,
4682673025,13,76,55,119,-14,-1,33,23,
4682695361,4,26,34,64,45,21,24,11,
4682695361,-1,-3,-10,-14,70,-10,-5,-6,
4682710432,-8,1,-22,15,-81,-18,-7,-4,
4682710432,4,29,36,-7,-26,7,19,8,
4682717838,-6,-54,-52,-35,-29,-5,-13,-7,
4682717838,5,30,51,15,-81,-2,16,6,
4682732841,3,19,6,57,-100,5,26,3,
4682732841,-20,-28,-55,-80,23,7,-9,-13,
4682755198,8,48,62,127,105,12,17,12,
4682755198,-3,-42,-82,-108,-6,-2,8,-7,
4682770190,13,19,52,24,26,9,-13,2,
4682770190,-1,17,-22,57,-93,-8,24,5,
4682777801,-12,-55,-32,-47,65,-3,-11,-11,
4682777801,4,34,54,6,24,-4,-30,-2,
4682792775,2,20,-57,53,-27,12,39,5,
4682792775,-10,-45,12,-103,28,-11,-43,-19,
4682807844,-1,16,-1,63,-74,1,29,3,
4682807844,-3,0,-16,-45,80,-3,13,-1,
4682822694,1,26,27,7,-49,-8,6,1,
4682822694,-11,-39,-33,-18,16,-7,-19,-14,
4682830296,6,-3,1,-46,73,12,-25,-4,
4682830296,-2,-36,-45,104,-88,-30,1,3,
4682845361,-5,-8,10,-31,-106,8,27,4,
4682845361,2,-12,7,-31,127,18,-2,-4,
4682852943,11,37,23,29,-4,-10,-17,4,
4682852943,-9,-12,-13,-73,-22,2,6,-5,
4682867854,-4,4,14,-21,-16,14,-2,-8,
4682867854,7,1,-55,113,66,0,-14,2,
4682890521,1,-8,21,-108,-114,-10,16,6,
4682890521,3,11,-9,8,78,-2,15,3,
4682905243,-4,-5,0,59,-15,-7,10,-8,
4682905243,-11,-33,-46,-122,-41,-13,-37,-15,
4682927866,6,-9,53,-128,13,-2,-31,-3,
4682927866,6,1,-29,3,-68,-15,14,10,
4682942778,-4,-17,-26,-51,58,5,-16,-5,
4682942778,-2,23,42,119,-91,13,39,9,
4682957861,-3,14,-28,103,-128,7,50,10,
4682957861,-3,-11,45,-128,127,8,-37,-15,
4682980464,-4,-24,-50,-128,14,-10,0,-6,
4682980464,5,17,45,124,38,16,12,5,
4682995410,1,1,17,-118,93,4,0,4,
4682995410,1,12,17,117,-75,1,-8,-7,
4683010204,-8,-18,-28,-94,91,-9,2,-4,
4683010204,3,13,24,15,1,-12,2,2,
4683017696,-9,-13,-48,38,-49,0,-4,-2,
4683017696,1,14,42,-37,-2,-12,17,11,
4683032873,5,22,-10,127,-28,-4,1,3,
4683032873,3,-26,-11,-128,122,-9,-30,-8,
4683047789,1,-3,-10,36,-101,6,16,0,
4683047789,-7,15,1,42,56,19,17,3,
4683062802,-2,-10,-32,-30,-23,-8,17,-3,
4683062802,6,22,42,5,-96,3,5,7,
4683070272,2,-8,-3,-30,123,6,7,-1,
4683070272,-3,13,2,14,-14,-1,-18,-4,
4683092818,1,8,-17,-82,-60,-8,14,9,
4683092818,2,-6,5,15,30,-6,-33,-7,
4683107733,-2,-6,0,13,44,-1,-16,-1,
4683107733,1,3,6,-21,-74,0,31,10,
4683115386,-22,-51,-1,-19,58,-18,-26,-22,
4683115386,5,7,-6,123,-74,10,17,6,
4683130439,-12,6,-67,-91,33,-1,25,-5,
4683130439,-4,-41,-26,-59,-60,3,-44,-13,
4683145371,3,27,40,127,76,4,29,13,
4683145371,-2,24,3,-103,-49,9,38,3,
4683160438,-8,-17,28,66,23,-3,-39,-20,
4683160438,8,5,-1,-76,-14,-4,-9,7,
4683175377,2,4,27,-57,84,4,-31,-1,
4683175377,1,12,20,38,3,-1,-2,3,
4683190415,-2,-22,-10,-83,-26,-5,-21,-5,
4683190415,4,38,47,35,-86,-16,18,7,
4683197980,5,5,-44,69,-46,-3,39,9,
4683197980,-2,-12,-15,67,-61,7,9,-6,
4683205438,-17,-41,-1,-75,16,4,-69,-29,
4683205438,16,19,49,-13,34,-11,-14,17,
4683212727,0,15,-22,63,-9,8,20,9,
4683212727,-7,-9,-25,-57,-7,-18,3,-8,
4683227849,3,21,46,0,-41,6,-4,1,
4683227849,0,-43,-71,-9,46,1,17,6,
4683242912,1,10,16,53,67,11,-17,-5,
4683242912,-13,-65,-48,-42,63,-21,-40,-13,
4683250445,6,19,42,49,-6,4,3,7,
4683250445,-5,30,18,-64,38,-10,19,-4,
4683265429,-11,-36,-39,26,-128,-16,14,-4,
4683265429,9,42,22,-43,86,23,17,6,
4683272906,-3,-20,-13,1,103,3,-38,-13,
4683272906,3,21,4,92,-56,-11,4,9,
4683287911,1,-15,-24,-82,-78,-6,-11,0,
4683287911,3,40,67,63,-10,14,11,0,
4683302758,0,6,-17,-10,61,-1,18,1,
4683302758,4,-4,-36,-34,-30,-7,0,-3,
4683310242,-4,-20,1,-44,44,-8,-31,-8,
4683310242,2,8,18,12,-24,0,-8,5,
4683325446,-3,7,-9,79,8,-1,20,5,
4683325446,-3,-3,1,88,-99,0,27,-2,
4683340475,-5,-28,-33,-101,68,-2,-14,-13,
4683340475,-5,11,23,-21,-24,-11,-43,-11,
4683355231,-2,7,17,19,-128,-10,13,3,
4683355231,0,-16,-4,-81,13,1,0,2,
4683377782,2,11,11,51,-3,16,-7,-2,
4683377782,-4,1,-7,22,80,-9,14,3,
4683385270,6,37,29,52,-77,8,33,6,
4683385270,-33,-95,-98,-58,-5,-2,-22,-27,
4683392870,10,1,52,-105,19,6,-63,-4,
4683392870,8,9,3,84,22,-9,-4,12,
4683400436,-10,-1,-29,-79,-73,-11,16,-1,
4683400436,1,6,24,121,11,-3,4,0,
4683415164,-2,-4,4,-5,-37,2,-9,2,
4683415164,12,35,9,68,13,2,43,17,
4683437704,-10,-19,-51,26,78,-5,-24,-9,
4683437704,7,10,21,-125,107,5,-7,3,
4683452720,0,21,29,70,-82,-14,15,4,
4683452720,-2,-35,-109,-82,-71,-3,45,7,
4683460296,4,8,41,13,82,16,-21,-10,
4683460296,-13,-60,22,-92,42,-5,-64,-24,
4683482889,-19,-70,-60,25,29,-18,-3,-11,
4683482889,9,41,56,21,85,23,-14,5,
4683497989,6,27,39,14,74,15,-7,-1,
4683497989,-1,27,26,69,-33,-10,27,9,
4683512659,-15,-97,-93,-62,-16,-4,-15,-9,
4683512659,14,51,102,18,54,0,15,13,
4683520275,-9,-45,-59,-77,-45,-11,12,-6,
4683520275,9,36,26,22,-6,-2,-5,1,
4683527857,-11,-54,-53,-85,13,-11,-52,-14,
4683527857,19,58,89,8,-40,6,4,17,
4683542688,-2,-11,-87,5,-4,-2,19,3,
4683542688,-1,11,81,23,-40,-8,-24,-12,
4683550343,5,66,47,127,-18,-11,56,23,
4683550343,-5,-26,-41,-128,30,17,12,-7,
4683572957,-6,42,105,-17,68,8,-56,-26,
4683572957,-5,-59,-89,-15,-4,-2,-22,2,
4683580431,16,37,26,56,27,1,24,14,
4683580431,-13,-37,-47,21,-126,-25,-1,-10,
4683595440,5,44,85,84,39,3,-17,-1,
4683595440,-9,-83,-128,-4,-25,-7,-1,-7,
4683617702,-6,-25,48,17,16,-14,-42,-6,
4683617702,9,63,69,110,68,13,59,19,
4683625384,-7,-38,-98,-128,-57,-14,19,-6,
4683625384,6,22,73,36,86,7,-55,-10,
4683632782,8,-16,-44,71,-27,-4,8,7,
4683632782,-5,42,67,-39,-86,0,19,1,
4683640484,-2,-37,-68,-3,59,6,0,-3,
4683640484,5,66,75,38,49,-10,0,2,
4683655399,-2,11,1,9,60,2,-1,1,
4683655399,-17,-57,-41,-31,-75,-2,-15,-12,
4683670264,-7,34,79,26,-127,19,47,6,
4683670264,-3,-45,-115,-90,105,-20,-25,-14,
4683685266,12,15,92,44,57,-2,-64,-4,
4683685266,2,19,-8,5,10,4,13,2,
4683692928,1,-34,-42,2,45,12,-10,-3,
4683692928,4,21,32,55,-22,5,25,10,
4683715218,-21,-69,-51,-77,-24,-33,-37,-22,
4683715218,10,67,100,-3,-71,-4,-25,6,
4683737870,-3,19,22,-29,-78,18,20,0,
4683737870,1,-10,-42,-25,105,6,-38,-9,
4683745370,19,36,65,22,-5,-7,6,16,
4683745370,-9,-49,-94,-76,39,16,2,-6,
4683767887,-1,11,18,81,-38,-15,10,1,
4683767887,-6,-15,-56,44,-30,-3,59,10,
4683775307,-1,0,16,-47,-4,13,-14,-13,
4683775307,-11,-47,-19,-59,9,-17,-47,-14,
4683782933,-1,-28,-39,17,92,-20,-53,-11,
4683782933,8,49,84,36,4,17,32,15,
4683805171,12,76,117,9,-28,8,17,19,
4683805171,3,42,-16,86,-10,24,62,9,
4683820248,-33,-79,-76,-109,-96,-26,-62,-36,
4683820248,12,45,66,34,31,5,-7,10,
4683827914,-2,1,-37,22,-26,-8,19,8,
4683827914,-3,-5,12,28,-50,-4,6,-4,
4683850253,6,11,76,-34,-92,2,-30,1,
4683850253,10,63,40,-65,0,-5,62,26,
4683865412,8,23,-1,-2,60,13,26,14,
4683865412,-20,-35,-35,-50,-15,-11,-48,-27,
4683872969,5,-25,-5,-46,-80,-6,-17,5,
4683872969,0,35,39,-25,-47,1,41,14,
4683880382,-7,-16,-50,14,3,3,10,-12,
4683880382,6,32,52,115,-19,1,5,2,
4683887874,-9,6,-30,51,-77,-7,10,-1,
4683887874,-7,-32,-42,-2,-101,-18,5,-4,
4683902890,4,-22,5,-64,109,0,-48,-6,
4683902890,6,14,28,-27,48,-3,-10,3,
4683910194,3,8,-35,2,-12,-9,10,3,
4683910194,-2,-5,17,67,-40,6,4,1,
4683925374,8,56,23,31,-112,9,48,13,
4683925374,-22,-51,-82,-3,11,5,-10,-18,
4683932870,10,39,109,99,34,5,-13,2,
4683932870,1,-25,-72,-125,-53,-13,7,2,
4683947915,-8,3,-25,44,14,6,25,-7,
4683947915,-3,6,-4,-4,-23,-13,13,4,
4683962905,5,8,58,58,111,13,-26,-1,
4683962905,-5,-8,-65,-90,5,-23,-7,-5,
4683970350,-1,-39,-9,75,-57,-7,3,3,
4683970350,-10,-42,1,7,127,11,-34,-21,
4684000473,17,50,9,17,-14,-4,26,23,
4684000473,-6,-28,4,21,-128,-30,-3,-5,
4684007784,-1,19,37,-128,-12,22,11,1,
4684007784,4,46,-25,111,78,10,23,-2,
4684022688,9,45,36,22,35,-10,21,11,
4684022688,-21,-88,-105,-92,18,-21,-30,-12,
4684045287,-15,-46,-42,13,72,-3,-43,-23,
4684045287,4,-2,42,-30,43,2,-24,3,
4684052721,1,24,-14,21,-87,8,11,1,
4684052721,-4,-27,-21,61,44,5,11,5,
4684060212,4,10,41,-70,-27,-2,-25,-6,
4684060212,8,18,3,47,-32,-20,3,3,
4684082746,-8,-28,-50,-99,43,-10,-30,-7,
4684082746,11,60,68,61,72,29,28,10,
4684105235,-7,-13,-9,39,111,18,-8,-7,
4684105235,1,-26,-56,-117,-48,-29,-31,3,
4684120285,12,55,80,55,60,30,7,6,
4684120285,-6,14,-60,49,-11,-16,57,3,
4684127686,-17,-89,-39,-75,-66,-22,-29,-16,
4684127686,8,23,85,29,-8,20,-10,2,
4684135201,4,18,-32,72,51,5,13,2,
4684135201,-14,-32,-16,-128,-54,-20,-13,-8,
4684142734,11,48,16,67,-15,5,27,16,
4684142734,-8,-54,-62,-9,93,1,14,-3,
4684158143,10,2,4,29,-67,-6,-19,3,
4684158143,3,7,-7,-87,-45,-2,11,0,
4684172855,-14,-71,-40,-39,45,-23,-50,-17,
4684172855,11,57,87,54,-125,12,29,13,
4684180368,-9,-43,-124,-30,31,3,10,-5,
4684180368,5,23,79,56,-27,-3,-15,6,
4684202735,3,27,-19,98,47,4,52,16,
4684202735,-19,-39,-49,-39,-84,-14,-13,-17,
4684217694,3,14,56,-93,77,-5,-14,-2,
4684217694,1,28,-8,127,-55,9,22,2,
4684232709,0,43,35,30,-43,14,46,9,
4684232709,-16,-81,-79,-47,50,-14,-46,-22,
4684240177,4,20,57,65,-67,-15,-22,0,
4684240177,4,3,-11,-57,24,9,20,9,
4684247648,0,49,65,-29,3,7,4,-9,
4684247648,-2,-39,-73,-33,-63,-13,5,-3,
4684255221,-2,-31,3,-3,-49,7,2,2,
4684255221,-7,6,12,-12,62,-7,-15,-4,
4684270201,-2,11,0,35,-102,5,21,13,
4684270201,12,49,49,3,107,24,16,8,
4684292813,-17,-78,-108,-40,81,-25,-48,-16,
4684292813,9,32,77,24,-128,11,7,12,
4684300422,-3,-18,-15,9,40,-3,11,-5,
4684300422,-7,-17,-20,-50,-91,-19,-18,-5,
4684322891,12,107,96,33,103,13,60,23,
4684322891,-11,-98,-125,27,-51,-6,-12,-23,
4684337747,-4,-53,14,-42,92,9,-57,-12,
4684337747,12,50,49,88,12,14,24,11,
4684367864,1,-12,3,-21,-41,-2,-13,0,
4684367864,3,5,18,-22,61,-8,5,4,
4684375395,-1,1,-5,11,-12,26,-7,-8,
4684375395,0,48,16,63,52,8,16,3,
4684382862,1,-17,-30,-35,-11,-4,11,-2,
4684382862,-12,-14,-15,10,11,-9,-11,-6,
4684390236,4,10,-3,-8,-29,-19,-3,6,
4684390236,-8,-15,-18,56,-118,8,23,1,
4684397905,0,11,23,-122,118,10,-8,-6,
4684397905,0,1,8,14,-103,-2,-33,-14,
4684405206,-15,-44,-76,-33,-27,9,14,-17,
4684405206,5,-15,91,-96,96,-32,-82,-12,
4684412715,4,25,72,27,-24,-4,-5,8,
4684412715,-13,-45,-94,-71,65,-4,-9,-8,
4684427707,8,74,90,54,-81,11,33,11,
4684427707,-10,-39,-70,-48,83,1,5,-12,
4684435278,2,44,35,67,-118,-21,9,6,
4684435278,-3,-25,-35,-42,-66,17,4,-9,
4684450305,-9,-54,-68,-31,-79,-13,11,-6,
4684450305,2,17,29,7,-33,-15,-14,1,
4684472695,11,41,3,85,70,14,48,20,
4684472695,-21,-4,31,-97,4,-9,-10,-25,
4684495199,-5,-54,-90,-9,86,-1,-28,-10,
4684495199,1,-1,11,10,-59,1,1,5,
4684510347,3,-13,20,-128,-8,-18,-41,-6,
4684510347,5,49,47,102,-48,5,40,15,
4684525367,-7,-7,-37,20,7,-11,14,-6,
4684525367,0,23,10,22,-4,17,5,-3,
4684547867,3,24,35,3,54,-5,1,3,
4684547867,-15,-44,-22,-84,32,-24,-29,-15,
4684555387,6,10,34,-50,51,2,-35,-1,
4684555387,3,30,48,69,-58,-3,16,11,
4684562826,1,28,3,-54,-8,7,37,3,
4684562826,-5,-25,-24,19,31,12,-10,-12,
4684570249,-2,7,23,56,-32,8,-16,0,
4684570249,10,26,-9,-93,78,-28,16,15,
4684577955,4,26,50,61,72,7,-6,2,
4684577955,-11,-54,-84,127,42,-2,-26,-14,
4684585259,6,15,33,-86,-3,-1,14,10,
4684585259,7,35,6,-29,85,-19,22,14,
4684592897,-13,17,-1,59,-128,-9,50,-3,
4684592897,-14,-61,-15,-53,110,19,-42,-26,
4684607682,7,-2,9,-10,84,-21,-50,-2,
4684607682,1,-28,-33,30,-128,7,16,12,
4684615178,1,20,30,-2,26,5,3,-3,
4684615178,2,9,-33,-3,-59,-4,20,5,
4684630259,2,-4,30,-87,86,-3,-13,-6,
4684630259,-10,-31,-28,-73,-44,8,-30,-9,
4684645400,-1,12,18,38,90,-18,-18,-4,
4684645400,7,55,12,127,-56,13,62,19,
4684652762,-6,-18,-83,-90,69,4,37,0,
4684652762,-8,-14,56,-69,-12,-20,-61,-20,
4684667755,8,-6,17,37,36,1,-12,9,
4684667755,-9,-21,-22,4,-45,-11,5,-3,
4684682938,-2,-15,33,35,60,6,-43,-13,
4684682938,15,40,34,63,52,12,38,13,
4684697934,-18,-73,-81,-13,-12,-20,-9,-13,
4684697934,18,48,70,46,17,27,5,10,
4684712644,-6,-17,-29,41,106,7,-11,-12,
4684712644,-8,-38,-39,-92,-71,-34,-48,-10,
4684720182,-1,5,27,-15,-19,-1,-14,7,
4684720182,0,11,-17,33,-63,-12,26,7,
4684735196,-1,-6,-19,18,15,-2,13,-2,
4684735196,4,9,6,-76,33,-2,2,2,
4684750368,-2,-62,-85,-47,47,-37,-30,5,
4684750368,10,27,58,-2,-43,21,16,13,
4684772895,-5,-31,-22,-3,7,-1,7,-7,
4684772895,12,8,32,1,53,-3,-8,6,
4684780371,-7,37,44,97,-85,3,26,2,
4684780371,-5,1,-84,-48,11,0,28,1,
4684795213,-8,-14,42,-49,-52,-1,-18,-8,
4684795213,1,2,18,-72,27,-5,-12,0,
4684802720,5,3,-9,90,2,5,-18,1,
4684802720,-3,-17,5,-36,-35,2,4,-4,
4684817664,-3,15,-29,-61,-66,-6,1,-3,
4684817664,-13,-22,4,-20,30,-10,-22,-8,
4684832753,4,15,-1,48,4,8,3,3,
4684832753,-8,-23,5,-81,-36,-22,-2,-2,
4684840272,-7,8,27,18,-128,9,-6,-8,
4684840272,3,-1,-18,103,127,14,-10,-1,
4684855241,-1,-11,-22,-119,-37,-10,-14,0,
4684855241,0,9,-1,66,-85,-1,18,5,
4684862941,6,25,48,1,-2,4,5,2,
4684862941,6,-5,-55,0,58,-2,1,3,
4684870241,-2,-25,-4,-116,-9,2,8,-1,
4684870241,-12,-36,-18,-28,-8,-17,-54,-18,
4684885363,11,48,58,31,69,3,3,12,
4684885363,-6,-48,-57,-35,0,-7,8,1,
4684900184,2,1,-9,-30,7,-12,-42,-14,
4684900184,9,58,71,77,-76,1,46,21,
4684922768,-4,37,-19,-35,-113,2,46,-2,
4684922768,-19,-79,-50,-30,65,14,-50,-24,
4684930212,7,61,88,-32,75,-14,2,13,
4684930212,-3,-13,-37,47,20,18,6,-3,
4684945411,-5,-26,-112,-55,-19,-6,19,-6,
4684945411,-12,-22,58,-52,-106,-13,-26,-12,
4684967723,-4,-49,5,-67,-17,2,-22,-9,
4684967723,6,21,32,-38,48,-3,-10,-1,
