timestamp,C1,C2,C3,C4,C5,C6,C7,C8,
146192783697,52,71,111,111,111,107,17,14,
146192783697,-98,-96,-96,-93,-96,-59,-67,-81,
146192790416,67,-9,-8,-75,-101,-83,-5,43,
146192790416,37,78,84,84,82,86,66,32,
146192797993,-51,-58,-115,-128,-79,-93,-37,-41,
146192797993,68,71,31,-44,-33,-25,28,41,
146192812919,-72,50,78,88,100,95,-24,-59,
146192812919,-40,-112,-126,-100,-128,-68,-46,-22,
146192820418,12,9,-7,-41,-76,-67,12,24,
146192820418,49,83,80,107,116,90,12,16,
146192836787,-59,-76,-128,-128,-128,-61,-20,-36,
146192836787,109,94,127,127,77,52,74,78,
146192842988,-108,-95,-8,-51,-3,21,-53,-70,
146192842988,-16,-90,-120,-123,-128,-113,-24,1,
146192857875,57,73,39,-50,-46,20,36,36,
146192857875,-18,46,47,53,82,98,12,-16,
146192872915,62,78,67,127,77,46,86,68,
146192872915,-14,-7,-102,-87,5,18,-19,-31,
146192897520,30,-7,47,59,94,-13,-11,13,
146192897520,-20,-11,32,0,-2,45,4,-6,
146192903025,-22,-9,-69,-85,-92,-53,-39,-27,
146192903025,0,-6,-87,-54,-76,-18,12,11,
146192925374,39,101,41,-90,-79,-13,9,19,
146192925374,-69,-73,-12,19,73,26,-23,-40,
146192932921,-37,-60,-76,-93,-60,-39,-40,-28,
146192932921,77,99,123,127,85,33,58,67,
146192966212,82,78,74,-32,9,9,35,51,
146192966212,-76,-26,77,59,58,-1,-51,-60,
146192970509,-47,-19,-70,-78,-88,-36,-20,-23,
146192970509,114,106,113,127,96,112,85,79,
146192985642,63,75,109,115,114,47,47,45,
146192985642,-78,-37,-83,-128,-128,-91,-70,-74,
146192992910,12,27,-49,-89,-73,-24,7,7,
146192992910,88,97,127,127,127,127,79,75,
146193037931,50,36,127,127,127,127,69,75,
146193037931,-93,-128,-128,-128,-54,-53,-61,-61,
146193045406,-5,17,-49,-127,-77,-83,-21,-15,
146193045406,35,96,100,102,108,79,38,30,
146193054244,-26,-54,-44,-12,7,12,-9,-18,
146193054244,-49,15,-12,-88,-106,-34,-33,-38,
146193067990,78,52,40,-16,115,20,54,65,
146193067990,-28,-20,56,51,36,-28,-43,-36,
146193075365,-56,-50,-98,-128,-99,-108,-65,-51,
146193075365,49,64,88,-17,-58,-24,20,40,
146193090507,-13,1,-83,-86,-93,-79,-44,-18,
146193090507,4,42,33,59,-42,-4,15,3,
146193099484,10,8,-44,-27,22,26,-8,1,
146193099484,-20,-50,-53,-87,-77,-58,-23,-18,
146193105504,3,12,30,-128,-128,-35,-19,-4,
146193105504,4,26,29,90,45,24,15,3,
146193120557,69,26,92,127,127,55,53,58,
146193120557,-29,-61,-30,-58,-18,15,3,-12,
146193135526,57,127,103,80,19,34,36,31,
146193135526,-42,-36,58,-50,-12,6,-15,-28,
146193150677,-33,-81,-117,-117,-60,-36,-25,-24,
146193150677,0,-47,-64,-82,-82,-49,-22,-4,
146193158270,53,18,35,43,65,56,36,29,
146193158270,-42,-31,-15,-17,19,-75,-21,-13,
146193180629,-56,23,34,-77,-20,-11,-44,-57,
146193180629,-7,-23,-82,-28,36,31,-16,-17,
146193195402,22,20,122,82,-45,1,33,35,
146193195402,26,56,87,107,124,105,5,6,
146193202897,-44,-86,-128,-128,-128,-128,-41,-23,
146193202897,109,127,127,127,-33,-10,49,65,
146193225401,28,82,43,55,-60,-75,-9,13,
146193225401,-8,4,0,-100,11,-7,-14,-13,
146193270415,104,100,111,111,111,100,80,90,
146193270415,-70,-14,-15,-92,-90,18,-31,-53,
146193279143,11,-29,-68,77,66,-31,-5,14,
146193279143,68,48,79,-68,-71,-7,38,48,
146193285382,-106,-92,-40,-36,-26,1,-67,-89,
146193285382,4,8,-46,-46,-55,4,25,18,
146193315480,42,40,55,9,30,21,24,31,
146193315480,-47,-24,-83,42,35,14,-31,-40,
146193323189,53,78,57,-53,-73,-64,0,28,
146193323189,-35,-1,55,28,17,46,1,-25,
146193330543,-90,-103,-128,-128,-128,-75,-47,-57,
146193330543,127,114,127,104,72,-32,46,89,
146193345584,31,17,-26,-42,-44,-27,18,21,
146193345584,-5,14,51,29,47,-6,-10,-13,
146193375396,27,94,103,85,105,44,31,27,
146193375396,-63,-93,-128,-128,-128,-61,-38,-38,
146193383261,62,97,122,73,96,-1,17,38,
146193383261,-22,50,68,96,72,99,2,-26,
146193397967,18,-82,-40,124,20,26,27,28,
146193397967,-5,-10,-31,-40,-91,10,5,5,
146193412894,24,61,-9,-5,-56,-38,-6,-5,
146193412894,-14,-81,-35,-5,-40,14,15,11,
146193427917,-12,-94,-108,-98,82,-18,-12,0,
146193427917,75,74,112,127,120,78,66,64,
146193435473,-40,17,37,-128,0,-40,-54,-47,
146193435473,-2,41,67,114,98,-15,-17,-15,
146193465443,-45,-121,-128,-77,-128,-44,-32,-34,
146193465443,-19,5,-82,-128,-98,-44,-16,-25,
146193495417,69,2,77,83,102,48,43,66,
146193495417,-70,-73,-42,-43,-128,-72,-50,-47,
146193502903,-7,6,-32,-14,-30,19,4,-2,
146193502903,17,5,49,-23,-111,-59,-16,4,
146193517903,13,44,101,1,75,43,16,13,
146193517903,-48,-31,-47,-18,37,21,-28,-51,
146193547961,-38,-70,-97,25,45,-22,-16,-14,
146193547961,21,8,-92,-128,-128,-60,-13,9,
146193562918,34,-14,44,-65,-88,-87,-21,15,
146193562918,-4,-26,33,48,-37,54,9,-3,
146193579226,-41,-44,-95,-86,-54,-8,-15,-33,
146193579226,87,39,72,-108,39,18,36,59,
146193600440,-13,41,-17,-31,-42,-13,-7,-8,
146193600440,53,52,36,33,43,-22,13,18,
146193608062,-72,-53,-112,-20,-48,-37,-51,-57,
146193608062,10,-60,-10,-119,-128,-63,-5,25,
146193622921,39,70,88,60,42,47,19,16,
146193622921,-36,-24,-78,-87,-41,-27,-31,-36,
146193645413,-29,-43,15,-67,-81,4,-9,-20,
146193645413,-23,-28,-41,-26,-59,-19,-13,-14,
146193667898,98,118,127,122,103,106,103,82,
146193667898,-28,-119,8,127,127,59,2,-2,
146193682941,-80,-116,-128,-128,-128,-111,-59,-57,
146193682941,41,80,19,57,77,10,1,9,
146193720374,35,20,9,127,13,34,43,33,
146193720374,-10,-4,-49,12,33,-29,-21,-13,
146193727803,42,4,-128,-110,-128,-53,3,22,
146193727803,41,52,99,103,107,48,50,40,
146193750335,-55,-45,-100,-123,-93,-80,-52,-51,
146193750335,55,-14,127,117,5,70,71,63,
146193787813,52,107,117,127,120,51,-2,19,
146193787813,-61,-117,-128,-128,-128,-107,-54,-51,
146193817831,75,60,126,123,127,101,85,81,
146193817831,-76,14,-33,-98,-49,-14,-44,-65,
146193840470,12,-61,-108,-102,-103,-92,-29,-2,
146193840470,103,78,101,94,85,69,95,99,
146193870383,-34,-122,-128,-128,-128,-60,-18,-20,
146193870383,40,-5,-52,-62,-72,-29,18,36,
146193892847,-61,-60,-128,-128,-128,-128,-60,-54,
146193892847,100,60,59,86,87,39,42,65,
146193900462,-39,-67,-83,-116,-65,4,-16,-28,
146193900462,-17,-13,-56,-49,-40,-21,-8,-9,
146193915429,10,19,0,43,27,2,4,5,
146193915429,35,72,83,103,99,-49,-10,17,
146193937843,-29,26,-1,-84,-92,-57,7,-9,
146193937843,63,69,127,123,127,124,54,47,
146193960363,-65,-104,-128,-128,-128,-60,-38,-52,
146193960363,32,0,-31,-90,-93,-23,26,38,
146193967892,-2,10,111,105,127,67,12,17,
146193967892,-64,-111,-107,-119,-121,-89,-60,-54,
146193997794,-40,-89,-127,-128,-128,-96,-49,-44,
146193997794,45,8,-35,-26,-70,-30,7,31,
146194020429,-3,5,-54,-51,-52,30,11,-4,
146194020429,3,29,15,-1,127,30,-2,6,
146194028004,-24,-40,-87,-44,-48,-69,-32,-32,
146194028004,-8,19,101,19,-43,-3,-15,-14,
146194072809,42,9,127,127,127,39,15,51,
146194072809,-104,-115,-128,-128,-128,-119,-70,-74,
146194102843,34,30,-39,-76,-45,-32,4,28,
146194102843,26,47,73,72,47,82,20,5,
146194110356,16,21,74,73,86,83,43,1,
146194110356,-29,-128,-128,-89,-128,-125,-27,-3,
146194155625,73,63,86,27,47,92,33,30,
146194155625,-64,-116,-65,-22,-14,-30,-58,-42,
146194177979,-62,-30,-128,-128,-128,-118,-57,-61,
146194177979,48,90,24,-15,-4,-6,41,36,
146194230332,-92,-110,-128,-128,-111,-84,-91,-87,
146194230332,7,-22,-11,-79,0,-23,-18,3,
146194245326,18,23,56,120,59,55,27,17,
146194245326,-2,92,42,51,58,-16,-23,-13,
146194267826,26,-26,10,-41,-52,9,6,23,
146194267826,-66,17,-44,-40,-67,-12,-23,-52,
146194275620,43,13,19,26,-19,-56,0,25,
146194275620,-21,-61,-128,-48,37,-8,-16,-20,
146194305568,28,78,52,44,26,4,23,22,
146194305568,-47,5,-26,-50,-78,-33,-14,-27,
146194312999,90,112,127,127,127,127,83,61,
146194312999,-57,-47,23,35,51,11,-32,-36,
146194343131,-67,-74,-128,-128,-128,-95,-72,-65,
146194343131,94,61,-11,2,-128,24,84,80,
146194373190,47,43,50,-66,-78,8,7,19,
146194373190,-3,-31,41,50,60,45,21,3,
146194388120,-56,29,5,-51,-44,-5,-24,-50,
146194388120,26,-35,32,74,127,51,24,23,
146194395631,18,-25,-24,-109,74,-14,4,22,
146194395631,1,-4,-1,-52,-54,27,24,8,
146194403140,59,-27,-80,7,34,-48,0,48,
146194403140,-47,11,-50,-128,-128,-67,-39,-53,
146194417984,-68,-42,-21,72,75,10,-26,-49,
146194417984,28,-1,-37,-109,3,0,6,22,
146194447897,67,79,120,47,-72,-14,28,49,
146194447897,-55,-35,-9,80,114,70,-14,-43,
146194455364,-83,-102,-128,-128,-128,-103,-58,-69,
146194455364,84,66,127,99,116,61,78,85,
146194477960,-31,-7,99,38,-55,4,-17,-11,
146194477960,-46,-89,-120,-44,-35,-71,-48,-43,
146194485611,19,-59,-75,-97,-63,-6,45,34,
146194485611,25,53,23,-89,-100,-21,19,25,
146194508069,-55,-29,16,32,57,52,-24,-30,
146194508069,-4,-78,-95,-86,-99,-104,-33,3,
146194523157,26,8,-125,-119,-128,-58,23,31,
146194523157,57,50,125,127,100,27,6,25,
146194575417,-14,-37,-71,-93,-49,-46,-28,-14,
146194575417,15,55,67,127,88,44,37,24,
146194590386,41,-27,-56,-6,-80,-5,25,44,
146194590386,-28,4,63,35,10,-20,-24,-21,
146194612940,17,-4,-41,-127,-84,-41,-5,4,
146194612940,19,80,127,46,55,69,44,19,
146194680688,-76,-39,-47,1,-2,38,-26,-61,
146194680688,10,-1,-32,-120,-128,-39,-6,6,
146194702843,-22,11,-45,-5,49,-2,-13,-25,
146194702843,-53,-76,-77,-44,-47,-71,-50,-34,
146194710348,12,16,28,42,29,32,-8,-6,
146194710348,-89,9,-77,-84,-93,-46,-52,-79,
146194718063,-69,-85,-128,-128,-117,-42,-32,-49,
146194718063,24,36,-51,-115,-122,-55,-7,21,
146194725487,107,124,127,127,127,127,102,82,
146194725487,-82,-128,-128,-128,-128,-106,-75,-72,
146194748089,-10,-17,-84,-78,-73,-101,-40,-15,
146194748089,38,46,82,-25,-27,18,36,27,
146194785561,-56,-29,-1,-72,36,6,-25,-34,
146194785561,50,54,94,30,-128,-58,15,36,
146194793151,-91,-53,-75,-55,86,97,-3,-64,
146194793151,89,8,-41,38,15,-53,8,65,
146194807891,2,-42,-27,-63,-100,-52,-13,7,
146194807891,23,87,74,127,70,66,25,5,
146194815433,-45,-87,-124,-128,-112,-62,-35,-34,
146194815433,67,79,45,99,108,52,60,64,
146194823147,49,83,127,113,48,85,25,26,
146194823147,-114,-86,-125,-128,-82,-41,-65,-94,
146194837991,-71,-25,-128,-128,-128,-70,-33,-52,
146194837991,104,39,94,127,127,72,63,84,
146194860574,-43,-28,4,-13,60,16,-24,-35,
146194860574,-30,-97,-128,-94,-87,-1,23,8,
146194882891,-28,44,28,28,54,-40,-22,-16,
146194882891,71,111,95,71,64,94,56,46,
146194898007,42,43,74,42,44,-6,15,27,
146194898007,-47,-26,0,-35,-107,-75,-34,-31,
146194913178,52,-48,28,24,-3,-16,14,46,
146194913178,-81,2,-10,-97,-79,-19,-40,-61,
146194935589,107,90,107,120,120,103,68,87,
146194935589,-96,-54,-58,-115,-44,-26,-87,-87,
146194950539,10,42,-53,-79,-117,-22,41,29,
146194950539,52,46,123,127,127,46,18,25,
146194987945,-82,-111,-128,-128,-128,-91,-51,-65,
146194987945,65,0,60,67,-63,9,37,59,
146195002867,4,55,127,109,94,61,2,-4,
146195002867,-37,-86,-84,-113,1,-105,-64,-35,
146195010426,54,76,66,-86,-99,-37,31,32,
146195010426,-56,14,38,52,92,63,20,-20,
146195025376,-10,63,68,72,67,68,-14,-24,
146195025376,-33,-111,-128,-128,-120,-119,-61,-27,
146195040303,72,60,119,-58,-63,13,41,56,
146195040303,-73,-16,61,73,117,102,2,-44,
146195055289,-17,-58,-67,-71,-74,13,-6,-11,
146195055289,-56,-23,-103,-128,-18,-26,-34,-39,
146195070397,-6,-17,11,13,-32,12,7,2,
146195070397,-46,6,-62,-57,19,-18,-37,-38,
146195085378,4,0,85,51,62,57,38,19,
146195085378,8,13,17,-14,96,23,-4,15,
146195100351,-11,-14,-82,-119,-108,-87,-22,-3,
146195100351,78,119,127,127,127,122,58,48,
146195130367,-14,38,-3,-18,1,-29,-20,-18,
146195130367,9,-39,38,63,24,-19,-20,-12,
146195145325,0,-14,-78,-18,-109,-15,-9,-7,
146195145325,33,7,-30,-54,6,5,28,29,
146195152894,-33,-6,120,119,80,65,11,-2,
146195152894,-27,-61,-128,-128,-89,-88,-42,-28,
146195190342,-26,-35,-82,-128,-95,-74,-29,-26,
146195190342,74,85,71,126,100,63,78,72,
146195197935,71,87,125,81,127,88,45,54,
146195197935,-117,-39,17,-43,-96,-45,-80,-101,
146195213037,-41,-22,-92,-109,-119,-79,-29,-31,
146195213037,110,40,83,4,-12,51,71,83,
146195227945,-84,-122,-107,-44,1,-7,-18,-40,
146195227945,-6,22,-11,-65,-103,-72,-2,7,
146195242900,67,94,98,87,115,127,62,44,
146195242900,-68,-45,-110,-128,-82,7,-13,-50,
146195257922,61,69,107,95,21,-41,23,56,
146195257922,4,63,46,-20,-44,-4,-20,-15,
146195265355,-41,-121,-109,-128,-128,-128,-45,-37,
146195265355,25,31,80,71,70,67,38,31,
146195272864,-31,-60,-3,4,26,33,-2,-11,
146195272864,-17,18,33,-50,-74,-4,-2,-11,
146195280307,-2,-4,-84,-61,97,8,-7,-8,
146195280307,36,-11,51,-42,-128,-47,13,38,
146195317844,-26,-46,-101,-123,-128,-61,-28,-23,
146195317844,4,-18,-26,-14,73,3,3,10,
146195340287,65,101,91,39,33,34,55,64,
146195340287,-53,-20,-64,-37,-15,-35,-30,-41,
146195347877,96,83,127,127,83,63,60,69,
146195347877,-75,-62,-110,-127,-44,-58,-71,-73,
146195362901,-73,-42,-18,-44,-5,18,-31,-51,
146195362901,0,-55,-65,-60,-76,-81,-30,-2,
146195393150,1,-5,-23,-62,-21,0,-30,-9,
146195393150,-10,-49,-58,-60,-80,-42,-1,3,
146195415580,-9,-91,-128,-128,-89,-62,-16,-4,
146195415580,23,52,31,52,-15,-15,13,23,
146195482927,38,57,30,43,58,84,25,25,
146195482927,-49,-18,-80,-128,-128,-107,-34,-44,
146195505563,-21,-61,-95,-117,-128,-102,-52,-23,
146195505563,-8,-51,-54,-86,-92,-67,-25,-12,
146195520509,-8,27,-45,-65,-60,-21,11,2,
146195520509,118,111,127,127,127,127,84,93,
146195528109,-128,-128,-128,-128,-103,-94,-70,-98,
146195528109,33,-2,-63,-78,-93,-40,12,24,
