timestamp,C1,C2,C3,C4,C5,C6,C7,C8,
37206030497,-11,-16,-32,-16,-58,-18,-5,-11,
37206030497,11,22,85,-28,-42,20,20,14,
37206038175,37,92,104,100,42,19,8,11,
37206038175,9,-38,-55,19,88,26,6,11,
37206045795,-45,-28,-24,-15,-61,-9,-2,-18,
37206045795,9,36,55,49,24,-15,-15,-9,
37206054958,50,63,90,60,67,33,32,28,
37206054958,-51,-57,-61,5,5,-27,-35,-32,
37206061859,1,-43,-101,-48,-38,-37,-13,1,
37206061859,-33,-30,-57,-128,-128,-16,0,-13,
37206075696,-3,-17,0,71,58,28,-3,-14,
37206075696,55,92,104,37,11,-19,2,27,
37206082878,4,1,56,-14,97,59,27,20,
37206082878,-91,-63,-97,8,-33,-47,-45,-61,
37206105508,47,-12,-52,-96,-88,-13,2,24,
37206105508,-18,53,68,-35,-20,49,41,-1,
37206114355,29,-5,36,97,86,14,1,13,
37206114355,20,5,-39,-36,-10,5,-1,11,
37206128027,-40,-58,-80,-63,-12,-32,-30,-18,
37206128027,-49,-78,-125,-66,-93,-48,-32,-35,
37206135416,36,84,119,62,11,28,21,20,
37206135416,34,2,35,63,102,42,32,30,
37206143124,-35,-40,-38,-66,-69,-19,-10,-19,
37206143124,-20,-29,-38,-62,-36,-2,-6,-14,
37206151971,25,64,83,85,21,-43,-11,3,
37206151971,34,34,30,-23,58,43,19,19,
37206166824,-33,-82,-73,-67,-83,-32,-13,0,
37206166824,-10,21,17,0,-22,1,5,-7,
37206173309,-15,-58,-86,-49,-45,-15,-27,-25,
37206173309,9,36,67,-1,-13,-10,9,13,
37206180691,-2,-3,-45,-47,-22,4,-5,-12,
37206180691,10,-16,11,41,62,27,16,15,
37206188038,-23,29,34,-40,-16,-23,-29,-21,
37206188038,23,-4,-8,48,66,10,-1,7,
37206203108,-28,8,-29,-45,-25,-2,0,-12,
37206203108,23,-30,-10,14,-50,-4,15,17,
37206213923,2,-42,-91,-57,-85,-6,-4,3,
37206213923,-13,71,105,97,58,-4,-7,-14,
37206225660,20,29,-10,3,55,25,12,2,
37206225660,-25,-87,-106,-96,-58,-32,-27,-9,
37206232930,-36,-36,-64,-50,-48,-9,-4,-12,
37206232930,42,28,38,33,-11,20,8,22,
37206240518,16,76,108,-40,29,22,24,6,
37206240518,-39,31,99,127,98,-15,-33,-41,
37206247947,41,3,-16,-65,-7,29,45,35,
37206247947,-28,-72,-104,-10,31,-16,-17,-10,
37206262933,-27,21,30,-6,-39,-43,-36,-29,
37206262933,79,-25,-53,-88,-57,33,42,68,
37206272009,-28,61,80,72,85,27,5,-22,
37206272009,-6,-54,-74,-52,-113,-27,-7,-5,
37206285843,-20,-8,21,69,54,23,8,0,
37206285843,7,13,1,-27,-16,-13,-1,-4,
37206292978,-12,-69,-76,-14,40,-17,-22,-9,
37206292978,8,58,80,27,-18,8,11,4,
37206300665,-3,33,33,25,56,14,-29,-28,
37206300665,28,-1,34,9,-1,10,22,28,
37206308157,7,-1,-31,35,71,19,-1,1,
37206308157,-21,-88,-128,-128,-117,-35,-19,-6,
37206330566,-36,-20,53,109,4,-24,-1,-17,
37206330566,50,109,127,115,114,22,1,9,
37206352860,-13,-49,-80,-58,-88,-27,8,-3,
37206352860,12,3,-33,-113,-104,20,27,20,
37206360453,3,31,-2,3,17,11,4,6,
37206360453,-38,-45,-55,64,44,-3,-37,-34,
37206367898,17,75,76,-85,-14,27,22,16,
37206367898,-51,-27,9,113,57,-27,-46,-55,
37206375347,-2,8,60,74,63,-2,-18,-12,
37206375347,9,-76,-97,-64,-20,-4,4,20,
37206382884,49,82,96,14,45,64,36,34,
37206382884,13,-5,30,20,83,-5,3,12,
37206390395,-61,-41,-86,-58,-56,-26,-28,-41,
37206390395,23,36,31,-72,-61,-28,-16,11,
37206405467,-18,-8,53,94,66,-12,-18,-19,
37206405467,23,21,30,-42,-73,13,43,21,
37206412961,-30,-53,-1,52,-2,-45,-37,-20,
37206412961,24,39,-94,-95,-75,10,19,12,
37206420382,-6,-83,-128,-6,43,20,7,6,
37206420382,-46,4,1,30,20,-26,-26,-29,
37206427893,48,41,67,16,33,22,16,24,
37206427893,-44,-1,54,69,50,-11,-19,-33,
37206442807,-1,17,63,10,-126,-32,-8,-13,
37206442807,23,-17,-102,-88,55,29,18,39,
37206450531,33,-47,8,37,-28,35,26,40,
37206450531,-5,-26,-56,0,101,10,-9,-4,
37206465372,-7,81,126,-50,-99,-15,6,-13,
37206465372,-13,-20,-7,92,111,18,5,-16,
37206472933,-57,-11,-48,-33,-67,-44,-48,-50,
37206472933,62,35,63,-48,11,57,58,47,
37206480441,-59,-91,-128,-15,-50,-30,-24,-31,
37206480441,47,30,-48,-92,-85,-48,-36,4,
37206487957,-44,25,4,-16,10,20,8,-15,
37206487957,57,-55,-25,64,36,8,15,45,
37206502933,-9,-3,-33,-40,44,8,-2,4,
37206502933,21,28,89,87,16,13,3,11,
37206510614,8,45,50,-12,24,16,20,2,
37206510614,-55,44,80,74,36,-11,-32,-49,
37206525399,47,-75,-73,-64,-19,-10,-4,31,
37206525399,-23,-8,35,-27,-28,14,32,2,
37206532913,38,84,77,119,110,39,16,10,
37206532913,-48,-71,-80,-32,-105,-35,-26,-37,
37206540723,-7,-27,-46,-48,-25,-34,-20,1,
37206540723,5,3,-10,-60,-24,4,5,1,
37206547885,9,-40,-20,64,20,5,13,14,
37206547885,-21,81,105,23,39,19,3,-18,
37206562897,54,-2,4,64,98,20,3,26,
37206562897,-49,-77,-106,-26,-55,-38,-20,-22,
37206570617,-40,-3,-64,-81,-102,-40,-30,-39,
37206570617,61,5,-83,-66,-35,7,31,46,
37206585347,-4,32,88,17,30,30,13,5,
37206585347,-7,60,127,105,111,30,-2,-11,
37206592905,26,-29,-64,-72,37,-8,-8,5,
37206592905,-60,-35,-17,-14,-80,-20,-24,-37,
37206600363,-2,10,-40,27,27,7,1,-5,
37206600363,28,12,-10,-111,-124,-28,9,15,
37206608081,-19,-17,12,115,26,-8,-19,-11,
37206608081,7,32,33,-75,49,-13,-16,-2,
37206622905,12,44,60,80,12,66,73,19,
37206622905,-32,-50,-18,59,20,-24,-34,-25,
37206630370,6,-36,-72,-92,-47,-14,-10,1,
37206630370,-12,-56,-87,23,9,-30,-29,0,
37206645450,-12,56,80,-52,-76,-30,-1,-14,
37206645450,13,81,35,-108,-72,27,6,-13,
37206660406,-54,3,4,-100,-14,-26,-43,-44,
37206660406,-3,-83,-110,-14,-95,-44,-32,-9,
37206675436,28,66,95,32,47,26,48,37,
37206675436,14,89,107,76,94,46,13,-2,
37206682932,-2,-64,-95,-6,39,-28,-33,-5,
37206682932,-12,-23,-36,-80,-58,-12,15,0,
37206697912,-16,19,2,-23,-47,-5,-19,-22,
37206697912,25,-17,-43,-27,29,4,-15,6,
37206705656,-53,-56,-47,32,-50,-40,-6,-27,
37206705656,19,20,10,41,-30,-6,-6,8,
37206720338,48,35,-22,-95,32,6,1,30,
37206720338,-39,-58,-54,-12,-17,-11,-14,-20,
37206735411,-2,-21,-50,-69,-77,-32,-10,-9,
37206735411,-2,32,41,27,-27,-15,8,0,
37206742891,13,-20,-9,-26,45,10,-24,2,
37206742891,21,54,115,121,103,50,48,25,
37206757895,-14,-2,-16,21,4,8,1,-10,
37206757895,-2,-2,5,-88,-48,-26,-17,-1,
37206765321,8,39,80,117,57,14,4,-7,
37206765321,-22,-32,-96,-94,-27,-19,-14,-18,
37206780606,12,44,42,61,57,43,41,15,
37206780606,30,-21,-4,32,94,30,6,28,
37206795412,-86,-107,-128,-12,-28,-58,-50,-56,
37206795412,52,44,-15,-99,-112,2,20,34,
37206802889,-8,17,28,-14,4,25,6,-4,
37206802889,-28,-12,24,84,6,-17,-14,-22,
37206817970,16,7,-62,-102,-3,5,-5,1,
37206817970,-11,-7,34,26,61,10,2,-2,
37206825377,41,83,92,48,53,27,30,19,
37206825377,-30,-71,-102,-81,-18,-6,5,-8,
37206840602,-11,-93,-110,-46,-3,-21,-13,8,
37206840602,-34,41,74,97,26,0,-20,-26,
37206855408,47,54,67,-6,8,26,26,20,
37206855408,-76,-91,-77,27,41,5,-11,-32,
37206862886,5,-58,-128,-76,-95,-55,-23,-5,
37206862886,6,15,34,1,-66,3,3,6,
37206878154,-13,22,53,21,71,22,1,-6,
37206878154,53,23,38,95,94,8,18,29,
37206885368,-36,-2,29,-34,-25,-4,-17,-28,
37206885368,11,24,-23,-68,34,26,6,3,
37206900434,-42,-85,-79,54,-3,-6,-9,-14,
37206900434,17,75,-3,-126,-92,-32,2,7,
37206915340,36,76,94,100,109,60,22,20,
37206915340,-37,-72,-70,76,1,-21,-29,-23,
37206923130,-35,23,12,-12,-54,-16,-28,-31,
37206923130,58,10,-1,20,61,12,16,42,
37206937910,15,11,24,-94,-14,-6,15,18,
37206937910,-74,-87,-95,-43,-60,-31,-38,-46,
37206945443,64,12,-9,-89,-66,5,22,42,
37206945443,-11,-4,42,115,81,33,11,-7,
37206967876,-24,-11,-66,-86,-59,-19,-19,-26,
37206967876,-4,5,47,71,18,-4,-10,-8,
37206982902,16,20,-6,-44,51,-2,-11,0,
37206982902,-29,-61,-57,30,-44,26,23,-2,
37206990367,30,85,28,-57,-25,17,27,24,
37206990367,-20,-84,-61,21,73,10,2,-10,
37207005614,4,62,88,96,-77,-26,11,4,
37207005614,34,4,25,-26,52,2,-7,22,
37207020643,34,75,89,37,71,38,26,23,
37207020643,-35,-66,-32,79,47,-22,-48,-40,
37207035397,15,74,87,-32,-11,0,5,17,
37207035397,44,47,70,9,88,46,18,23,
37207043116,-65,-80,-56,-15,-22,-41,-31,-41,
37207043116,5,-15,-66,-78,-75,-13,-18,8,
37207057956,-2,-24,-78,-25,25,11,24,4,
37207057956,7,-19,23,46,-46,11,32,10,
37207065403,-4,42,38,8,-32,-3,-6,-7,
37207065403,-15,-34,-56,-39,28,-10,-3,-10,
37207080582,-8,-45,16,0,9,13,4,4,
37207080582,-32,15,5,42,-43,-18,-14,-22,
37207095682,74,-44,-75,-98,18,28,30,58,
37207095682,-18,23,115,101,87,53,18,-2,
37207103094,-25,0,-17,-18,-44,-31,-29,-30,
37207103094,1,5,93,60,-18,-5,-4,-2,
37207117984,-20,50,-16,-26,58,16,-15,-39,
37207117984,48,3,-41,-128,-41,-12,23,48,
37207125614,-19,9,78,127,8,0,-8,-12,
37207125614,8,-52,-85,-62,-29,-17,2,3,
37207140496,-51,-73,-58,46,60,2,-19,-25,
37207140496,-24,-2,-36,-65,-66,-18,-17,-24,
37207155358,-9,-12,52,102,-9,-2,-3,-13,
37207155358,-40,-92,-119,-47,-24,-43,-32,-12,
37207162829,127,98,54,-72,-19,71,84,105,
37207162829,-36,-33,27,127,76,-5,-36,-27,
37207178114,-26,27,11,-16,-32,-8,-12,-27,
37207178114,-23,-19,46,91,54,3,-9,-4,
37207185418,-54,-64,-82,-20,-59,-60,-49,-62,
37207185418,116,114,92,-128,27,69,66,88,
37207200514,27,-42,-76,-55,51,17,-6,23,
37207200514,-70,17,55,102,-12,-71,-69,-62,
37207215395,30,62,77,22,6,28,39,15,
37207215395,-69,-128,-120,-69,-46,-62,-78,-58,
37207222923,23,48,25,-109,-106,-18,24,17,
37207222923,1,60,111,61,59,41,28,0,
37207238121,36,82,113,23,2,0,0,4,
37207238121,13,-84,-105,10,17,-8,-16,4,
37207245589,-71,-73,-92,-96,-110,-47,-25,-38,
37207245589,75,68,55,-54,-19,44,48,55,
37207260441,19,3,58,127,127,44,11,20,
37207260441,-88,-72,-43,41,-92,-44,-19,-50,
37207275327,65,47,11,-48,22,6,14,35,
37207275327,-28,-55,-103,-70,-39,11,-5,-14,
37207282867,13,43,45,17,25,-12,5,12,
37207282867,-11,-39,-64,-38,-50,-19,-11,-8,
37207297942,12,33,65,-5,13,12,-3,12,
37207297942,11,-10,7,24,94,46,39,24,
37207305455,-53,-30,11,81,-4,-37,-32,-46,
37207305455,55,63,-63,-107,-18,33,40,38,
37207320629,72,77,127,-9,38,13,24,35,
37207320629,-50,-78,-54,69,75,-28,-55,-34,
37207335406,-19,45,61,57,-55,-15,27,-4,
37207335406,53,-16,-56,-83,-47,1,22,47,
37207343088,-21,33,-17,4,3,-11,-28,-37,
37207343088,35,-9,52,29,2,30,27,34,
37207358090,-22,-10,-51,-11,-7,-4,-20,-11,
37207358090,-53,-65,-66,-14,49,-40,-49,-49,
37207365443,-7,30,62,23,-54,17,29,5,
37207365443,33,21,28,-2,42,18,10,8,
37207380580,-21,-28,-84,-79,-11,0,-12,-4,
37207380580,-2,-17,-5,79,-32,-31,-2,-1,
37207388059,40,-29,-68,-67,-27,6,13,41,
37207388059,-26,12,6,-69,43,40,7,-19,
37207403071,10,14,8,117,110,11,6,2,
37207403071,-35,-48,-7,10,-99,-65,-25,-15,
37207418016,56,17,-44,-77,-8,63,59,46,
37207418016,6,12,18,6,39,-4,1,11,
37207425610,-38,-89,-83,-66,-104,-26,-25,-23,
37207425610,1,45,66,67,54,34,29,7,
37207440388,73,54,74,51,61,40,19,41,
37207440388,-57,-35,-25,9,-30,-18,-29,-37,
37207447931,1,4,-59,25,-48,-11,15,7,
37207447931,-46,-111,-128,-113,-128,-67,-53,-35,
37207462911,74,100,101,-121,29,27,30,48,
37207462911,20,0,46,99,101,32,2,20,
37207478096,-80,-90,-78,-38,-86,-42,-26,-46,
37207478096,26,51,-7,-57,-25,-1,2,5,
37207485553,-64,-25,-30,20,-21,-32,-49,-60,
37207485553,107,85,66,-41,-41,28,75,77,
37207500362,-54,-93,-33,91,74,-30,-47,-32,
37207500362,-4,25,-5,-65,-28,-18,-6,-9,
37207507800,11,-3,-2,39,35,27,19,7,
37207507800,-19,-29,-37,-10,-37,-19,-22,-22,
37207522942,8,60,24,-50,-62,1,9,1,
37207522942,23,-12,-63,-33,65,28,11,27,
37207537937,-35,-94,-92,6,-66,-30,-12,-8,
37207537937,70,72,49,22,48,57,41,41,
37207545363,-22,-51,-56,46,54,3,-5,-11,
37207545363,-50,-36,3,26,-59,-53,-37,-35,
37207560351,25,105,113,-46,-12,19,10,4,
37207560351,9,-30,44,20,12,22,25,15,
37207567896,17,53,15,-18,-76,-16,-11,0,
37207567896,-35,-79,-120,-89,0,2,-10,-16,
37207583092,11,-80,-55,-49,-38,-14,-9,27,
37207583092,3,60,105,47,-10,1,9,5,
37207597980,-23,-22,-42,2,1,-9,-1,-26,
37207597980,-19,30,15,-63,-75,-13,-3,-16,
37207605367,79,9,8,39,99,42,32,59,
37207605367,-41,-25,-22,30,28,-11,-28,-26,
37207620416,-37,-17,-63,-52,-55,-35,-29,-33,
37207620416,21,-39,-66,-83,-72,-20,-7,7,
37207627974,20,63,109,65,77,63,37,26,
37207627974,-8,-8,48,55,-7,-26,1,-10,
37207643119,-7,-50,-36,23,46,-26,-31,-13,
37207643119,17,87,127,37,54,45,13,4,
37207658022,-25,-16,-36,6,3,-21,-31,-25,
37207658022,2,-22,-30,13,-97,-45,-14,-4,
37207665605,-14,-62,-62,-27,35,12,1,-3,
37207665605,-62,-55,-128,-102,-128,-40,-14,-40,
37207688107,72,43,39,5,6,28,55,56,
37207688107,1,-7,23,110,127,23,-15,6,
37207695666,-16,17,44,-48,-23,3,11,-3,
37207695666,40,84,87,15,-9,23,12,14,
37207710587,-36,-42,-43,-1,-82,-35,-15,-28,
37207710587,1,6,-47,27,90,5,-16,-4,
37207725436,-27,-17,18,-17,-48,-4,-14,-26,
37207725436,32,-17,23,80,-6,-18,13,30,
37207740607,-69,-50,-69,-60,-66,-26,-36,-48,
37207740607,65,54,81,11,-10,13,23,40,
37207747923,-17,-18,-49,-93,-35,-3,-10,-7,
37207747923,-31,-23,9,96,43,1,-7,-25,
37207762935,20,59,51,5,-10,7,19,6,
37207762935,26,47,52,41,27,25,8,16,
37207777896,-30,-79,-75,-65,-49,-22,-39,-23,
37207777896,1,8,35,26,-44,2,33,13,
37207785609,-9,60,53,71,71,-9,-23,-23,
37207785609,0,-39,-68,-71,-28,-6,8,-2,
37207800448,-25,-36,-70,26,23,30,13,2,
37207800448,4,11,38,10,-32,-18,-14,-12,
37207807935,92,76,67,67,66,42,60,75,
37207807935,-73,-106,-100,-7,8,-32,-46,-39,
37207823073,-78,-47,-1,55,-43,-43,-34,-50,
37207823073,68,108,97,-66,-35,33,28,33,
37207838167,-27,-29,-29,109,100,-20,-34,-30,
37207838167,48,6,7,-67,-90,-18,26,37,
37207845468,3,13,56,78,78,10,-22,-10,
37207845468,-51,-67,-93,-82,-22,-5,-2,-23,
37207860587,49,64,49,20,60,33,30,31,
37207860587,-46,-78,-98,-85,-25,-27,-39,-32,
37207868063,-3,-15,-23,-29,-102,-3,20,6,
37207868063,24,30,13,-30,13,-14,-13,2,
37207882853,-40,-28,-20,53,81,11,-12,-23,
37207882853,-24,-12,-29,-39,-77,-30,-23,-23,
37207897936,71,57,87,-27,103,51,45,45,
37207897936,-47,-30,8,79,-4,-22,-22,-28,
37207905602,-38,-50,-90,-70,-66,-25,-17,-24,
37207905602,80,91,93,49,38,11,21,42,
37207920546,-23,-41,-31,50,-28,-11,-14,-13,
37207920546,-44,-37,-54,-83,3,5,-20,-25,
37207928027,39,54,87,33,96,25,22,26,
37207928027,-63,-50,-64,-34,-108,-49,-50,-52,
37207942819,-44,-96,-111,-40,-101,-51,-28,-26,
37207942819,67,59,8,-28,12,14,26,49,
37207958082,-33,-30,6,26,5,12,-25,-21,
37207958082,-30,24,62,69,63,5,-4,-17,
37207965405,35,3,-9,-41,-24,-23,-6,8,
37207965405,-29,-9,-21,-76,-54,-1,-3,-14,
37207980589,-27,-92,-111,41,13,-9,-11,-17,
37207980589,59,127,111,-8,-12,2,36,35,
37207988146,4,-37,-21,100,75,24,-8,1,
37207988146,-16,9,19,-77,-27,5,7,-3,
37208002939,13,1,-4,-27,18,-8,-3,-1,
37208002939,-10,-15,-60,-15,-97,-41,14,6,
37208017986,6,5,8,-73,46,20,3,3,
37208017986,30,28,96,98,28,14,17,26,
37208025375,-2,32,-1,-128,27,36,9,-1,
37208025375,1,-2,16,7,115,26,-5,0,
37208040472,-18,-23,13,3,-122,-48,-24,-16,
37208040472,-2,-40,-114,41,12,6,-1,-4,
37208047971,-28,-28,-39,-5,-107,-34,-10,-9,
37208047971,7,45,92,106,100,1,-4,-6,
37208063084,7,-43,-63,-57,-33,15,2,12,
37208063084,-3,-17,-12,66,45,22,26,14,
37208078070,-23,-67,-112,-123,-122,-25,-5,-12,
37208078070,-89,-100,-42,17,-58,-61,-71,-64,
37208085336,65,127,127,22,21,25,44,34,
37208085336,-9,-13,10,23,15,7,-2,-9,
37208100361,6,-51,-70,-17,10,5,-1,13,
37208100361,37,19,-72,-128,-16,28,24,28,
37208108006,-62,-80,-94,75,13,-27,-35,-41,
37208108006,-31,-16,-10,-9,-27,-18,-27,-29,
37208123123,81,100,127,94,93,55,42,56,
37208123123,-49,-27,-59,1,-7,-10,-39,-42,
37208138071,10,13,-24,-5,53,2,15,12,
37208138071,-26,-19,28,21,7,-49,-46,-21,
37208145610,-45,-2,-16,-15,-93,9,24,-14,
37208145610,-7,-68,-66,-13,-17,-22,-10,-4,
37208160419,43,71,72,-95,-14,22,12,19,
37208160419,38,-15,-38,12,51,32,39,30,
37208167846,-32,27,69,80,27,-17,-24,-26,
37208167846,39,26,1,-1,5,15,16,29,
37208182890,-14,-19,17,71,76,3,-16,-12,
37208182890,-51,-52,-95,-77,-80,-45,-29,-29,
37208190553,42,37,91,20,-3,26,20,18,
37208190553,58,16,33,-29,60,42,34,43,
37208205273,-61,-60,-20,18,-58,-65,-57,-45,
37208205273,-1,72,43,-79,-14,-3,12,-7,
37208220651,29,51,90,50,40,33,12,12,
37208220651,5,18,11,-7,2,-3,2,5,
37208227900,-21,-72,-118,-100,-64,-41,-39,-16,
37208227900,23,23,60,103,31,24,36,33,
37208243035,-64,-91,-128,-107,-26,-33,-35,-45,
37208243035,7,23,85,8,-105,-9,8,-7,
37208250351,52,58,52,-16,124,52,39,43,
37208250351,-39,-91,-103,-24,-18,-15,-38,-33,
37208265477,-27,18,9,10,-58,-32,-26,-30,
37208265477,38,51,65,9,0,9,32,35,
37208280299,-76,-84,-117,-17,-87,-76,-79,-67,
37208280299,81,76,71,-61,-39,44,67,61,
37208287823,19,26,74,89,127,48,28,24,
37208287823,-42,-44,-81,-51,-40,-36,-48,-38,
37208302991,2,-5,-56,-9,-80,-45,-13,0,
37208302991,15,-15,18,9,50,64,37,32,
37208310595,-4,6,31,60,64,-3,-4,-9,
37208310595,-56,-71,-78,-58,-115,-54,-32,-42,
37208325621,-11,-66,-111,-2,-26,-24,4,-1,
37208325621,-16,-18,30,46,28,-21,-31,-14,
37208340341,21,-7,-65,-88,-60,17,16,14,
37208340341,14,20,23,39,-70,-15,34,23,
37208347781,-52,-23,48,1,-21,-32,-53,-43,
37208347781,18,47,32,-32,0,-2,10,2,
37208363085,34,65,89,90,63,35,28,27,
37208363085,-59,-30,-34,-37,-8,-16,-32,-43,
37208370405,21,-35,-128,-128,-53,10,12,15,
37208370405,-26,-101,-63,73,53,-8,-20,-14,
37208393057,-50,2,4,52,48,-3,-24,-43,
37208393057,-2,-7,-51,-87,-92,16,10,-1,
37208407940,55,24,35,45,35,22,27,43,
37208407940,-51,-128,-128,-44,-27,-32,-44,-34,
37208415594,24,-7,-61,-76,-99,-26,24,20,
37208415594,50,100,106,98,111,37,8,20,
37208430565,3,-14,-31,-77,-25,24,12,9,
37208430565,-32,-62,-56,-24,-46,-16,-6,-13,
37208445426,13,-21,-27,-2,41,2,-12,-1,
37208445426,-63,-79,-76,-60,-94,-15,-16,-28,
37208460600,27,27,8,-49,-83,0,34,19,
37208460600,42,65,107,76,71,47,37,28,
37208467831,-30,-13,29,32,49,6,-12,-11,
37208467831,25,20,-34,-90,-34,-23,-17,-3,
37208482918,-34,-71,-106,12,-46,-21,-21,-18,
37208482918,-64,-80,-57,9,-7,-8,-15,-34,
37208490612,47,66,-47,-113,-20,9,13,16,
37208490612,44,59,127,100,-66,5,53,34,
37208505629,-7,3,16,105,43,1,6,2,
37208505629,-8,-17,-61,-59,20,27,-8,-10,
37208520349,-37,-51,-76,-25,-51,-44,-33,-25,
37208520349,13,46,16,-100,-128,-21,28,8,
37208527810,-23,-89,-76,26,-33,-17,-17,-10,
37208527810,32,64,55,-18,-3,14,35,33,
37208543106,41,62,52,-67,-88,7,19,26,
37208543106,4,-30,-10,62,118,31,0,9,
37208565462,-41,-13,-18,85,28,-19,-15,-29,
37208565462,-2,23,2,-101,-69,-12,-10,-15,
37208572870,15,-23,-59,-89,-118,0,32,14,
37208572870,31,58,92,112,110,15,-8,23,
37208588082,-10,49,48,-35,66,4,-19,-17,
37208588082,-33,-54,-46,75,31,-15,-18,-21,
37208595478,34,19,-24,-92,-27,1,11,22,
37208595478,-31,-71,-109,-53,-9,11,1,-9,
37208610454,6,0,56,46,-5,-6,-7,9,
37208610454,-51,14,21,39,20,19,4,-33,
37208625371,-42,32,86,67,3,-40,-24,-38,
37208625371,75,80,85,-42,35,-15,-17,28,
37208640573,4,-11,-26,-34,-46,-22,11,14,
37208640573,-15,-34,-71,-3,-1,0,-5,-5,
37208647929,-18,-22,9,16,7,8,-3,-5,
37208647929,-17,-34,-91,-51,-83,-8,15,-1,
37208670599,-41,-46,-51,-8,-11,3,-32,-28,
37208670599,92,127,127,-6,19,32,48,52,
37208678055,-8,-22,-8,127,127,-1,-22,-7,
37208678055,-40,-45,-71,-39,-32,-38,-2,-19,
37208693071,15,38,-16,-128,-118,-13,-26,-10,
37208693071,100,98,120,114,114,100,83,78,
37208715367,-64,-60,-29,39,58,-6,-25,-41,
37208715367,13,33,58,22,-31,-21,13,13,
37208722991,-27,-19,-22,13,31,-15,-35,-27,
37208722991,-20,-27,-83,-100,-112,-45,-25,-15,
37208737887,3,8,35,61,-28,22,33,13,
37208737887,35,68,127,127,123,63,20,19,
37208760576,60,-4,4,-97,24,70,81,57,
37208760576,-12,-8,22,87,0,-14,1,-3,
37208775591,-30,-2,-8,25,3,-6,-7,-15,
37208775591,8,-63,-9,17,15,-22,-23,2,
37208790394,21,25,-27,-39,-39,6,28,20,
37208790394,22,35,45,4,69,22,7,10,
