timestamp,C1,C2,C3,C4,C5,C6,C7,C8,
109889918029,4,-29,88,15,42,-2,-5,-1,
109889918029,2,2,75,8,-63,-10,7,6,
109889933049,-8,24,21,16,-30,0,0,-5,
109889933049,4,-12,-110,-51,36,-12,-4,-1,
109889942503,4,21,56,-11,-114,-11,-3,-3,
109889942503,-7,-26,-128,-47,101,27,-7,-6,
109889948068,5,-4,80,15,-79,-21,-1,2,
109889948068,-4,27,47,-6,-37,32,6,3,
109889970707,7,25,100,79,-59,-43,-4,5,
109889970707,-8,-31,-58,8,92,12,-4,-5,
109890002483,3,40,94,33,-55,-26,-6,2,
109890002483,-8,-12,-117,5,-18,-6,0,-6,
109890008302,-4,28,13,-56,28,37,0,-5,
109890008302,-3,-4,113,48,-55,-45,-9,-3,
109890047242,-1,-17,-102,5,-12,-3,-8,-4,
109890047242,-8,3,8,8,-88,13,6,-3,
109890068404,3,29,-29,43,48,18,1,0,
109890068404,1,-46,55,-21,-11,-27,-4,-1,
109890082998,-4,13,-50,-1,82,22,5,-1,
109890082998,4,17,10,-16,44,-24,-10,-2,
109890090544,-4,-18,-68,-47,-128,-12,6,1,
109890090544,8,26,52,15,46,-13,2,7,
109890098243,-4,-1,71,61,50,20,-9,-9,
109890098243,-1,-45,-42,-51,14,18,4,0,
109890128029,-2,5,71,35,14,-43,-11,-1,
109890128029,0,-23,-6,-68,-66,0,-2,-1,
109890150642,-7,-8,77,73,114,21,-6,-5,
109890150642,-4,-46,-97,-44,10,8,-3,-4,
109890173093,7,-27,-128,-51,68,39,9,4,
109890173093,3,20,50,46,-34,-22,-2,1,
109890195673,-3,-24,-34,-1,37,-10,-10,-6,
109890195673,1,-38,-50,1,20,50,6,2,
109890218065,-1,22,99,-13,-107,-57,-4,0,
109890218065,-7,26,-53,-23,102,41,-1,-8,
109890225498,9,-46,-58,-54,-78,-32,-1,2,
109890225498,5,76,110,93,-57,-16,-4,1,
109890248010,-7,-28,4,-7,34,55,1,-3,
109890248010,-3,-15,-20,-49,-47,-21,-4,-5,
109890255725,-6,5,67,51,-49,0,-5,-4,
109890255725,5,6,-113,-122,10,5,11,6,
109890278117,-5,-3,27,-39,-97,26,1,-6,
109890278117,3,-19,-55,10,34,13,3,0,
109890285579,1,5,-48,-40,37,29,1,-2,
109890285579,-15,-11,-21,5,-87,-15,-6,-8,
109890300788,-1,31,38,15,-24,-8,-3,-2,
109890300788,7,-27,70,87,12,-34,-1,6,
109890323208,3,-16,-53,-40,10,-22,7,9,
109890323208,-13,-10,-6,7,-15,-32,-18,-12,
109890330710,-6,-27,84,7,-19,37,-1,-1,
109890330710,0,50,-31,-37,-5,-29,1,-1,
109890345524,-2,21,-37,-30,-27,19,0,-4,
109890345524,1,-2,-65,6,84,5,-3,-3,
109890360506,7,-8,77,30,-41,-11,-2,5,
109890360506,-13,-8,64,46,71,-9,-9,-7,
109890377540,-6,23,121,39,127,18,4,1,
109890377540,-6,-9,-7,-17,-44,8,2,-4,
109890383226,0,-2,-75,-15,-41,-8,-2,-2,
109890383226,0,-12,-46,-35,-17,6,-5,-3,
109890390504,-6,2,-77,18,-43,-21,-1,-5,
109890390504,10,4,61,-30,16,-10,-1,5,
109890405496,-16,-6,43,59,-27,-7,-13,-12,
109890405496,2,7,-117,-108,-15,23,15,4,
109890428152,-4,34,73,127,90,24,-3,-1,
109890428152,-7,-26,22,-54,73,24,-4,-5,
109890451865,6,-49,-128,-81,-27,-32,0,-1,
109890451865,-4,4,56,31,-57,21,-1,-3,
109890473104,3,-11,34,-3,-10,-23,2,4,
109890473104,-10,-21,-75,-59,-106,4,-7,-8,
109890488047,7,19,41,88,63,63,14,8,
109890488047,-16,21,99,24,11,-36,-16,-15,
109890503071,6,-32,41,-123,-106,-27,-3,4,
109890503071,7,36,93,100,73,55,9,8,
109890510550,-15,-40,25,-20,119,3,-6,-6,
109890510550,11,-35,-86,-44,-85,-1,10,7,
109890517984,0,5,-78,63,5,-36,-11,-5,
109890517984,-8,0,34,-90,-72,17,-2,-7,
109890547983,-1,40,2,11,-3,-23,2,-1,
109890547983,-4,-8,-93,-29,46,25,-5,-5,
109890555571,3,7,77,42,7,-38,-11,3,
109890555571,5,-24,-8,41,34,11,11,5,
109890563328,-4,-33,-13,4,-62,2,-1,-4,
109890563328,-6,17,35,-24,-6,-15,-5,-5,
109890570812,-3,-17,-115,-37,66,17,-6,-6,
109890570812,13,25,75,76,-31,4,9,10,
109890578078,-8,-32,-13,-55,91,-10,-9,-7,
109890578078,2,-16,-75,-46,-86,-51,-5,0,
109890600645,-2,31,81,77,-47,-16,-3,-2,
109890600645,-14,9,-8,-107,74,51,-6,-11,
109890638070,-5,-42,-71,-39,12,11,-3,-6,
109890638070,3,-56,-128,-95,-78,-23,0,3,
109890645721,8,76,127,80,52,-27,-6,4,
109890645721,-27,-19,81,37,-27,-7,-18,-17,
109890653040,3,-12,-55,-52,-79,1,16,3,
109890653040,5,11,105,25,-45,-36,-6,-1,
109890660611,-22,4,-24,-28,72,-12,-14,-18,
109890660611,7,-10,-11,-20,28,22,4,5,
109890675544,2,5,-44,24,-9,-1,-3,-1,
109890675544,-3,22,106,33,21,-33,-4,1,
109890683176,-3,-14,-121,-68,-55,1,6,0,
109890683176,-3,15,74,19,-65,-13,-4,-4,
109890728179,4,-9,58,38,127,62,4,0,
109890728179,0,-18,-66,-25,-89,-31,-8,-3,
109890758085,-1,-21,-56,-1,-107,5,4,3,
109890758085,2,39,76,-47,5,16,2,0,
109890780795,14,21,-2,-30,-128,-14,18,17,
109890780795,-2,1,97,113,127,27,1,-1,
109890810967,18,19,-34,81,-42,-26,-1,5,
109890810967,-7,-29,50,102,22,6,-3,-1,
109890840632,1,-18,-52,-27,-112,-59,-12,-4,
109890840632,4,46,-8,71,64,48,2,7,
109890855705,9,-9,-88,-128,19,-13,2,3,
109890855705,-4,48,0,67,-75,14,-7,-6,
109890878329,-17,-33,47,27,-89,37,-8,-16,
109890878329,15,-39,-106,-66,97,42,20,13,
109890893062,-13,-19,126,10,26,-30,-16,-10,
109890893062,3,-9,-107,-101,-123,-39,5,1,
109890915786,10,-5,78,44,127,50,7,8,
109890915786,-6,-24,11,83,31,-29,-9,-3,
109890923093,-4,25,106,6,55,23,-5,-5,
109890923093,-15,-6,-78,-54,-28,-82,-6,-9,
109890938004,12,-14,32,29,-84,-4,13,14,
109890938004,-9,26,-13,55,65,18,-1,-7,
109890968294,7,48,51,79,102,-8,-6,3,
109890968294,-28,-9,11,-77,39,37,-9,-14,
109890983080,8,-49,-107,4,-61,-16,3,6,
109890983080,17,-14,55,48,37,-8,3,10,
109890998228,-18,49,-29,-37,0,82,5,-11,
109890998228,2,22,73,60,-78,-74,-14,-1,
109891005549,-14,-38,-91,-40,-10,-17,-13,-10,
109891005549,12,-8,2,-22,-39,19,8,8,
109891020603,-9,33,-19,38,100,49,-4,-4,
109891020603,1,-52,-89,-76,-23,31,8,4,
109891050570,5,-16,-39,-80,-53,-11,2,1,
109891050570,-1,3,64,-34,-55,-18,-8,-5,
109891065468,0,15,127,76,-83,-31,-7,0,
109891065468,-9,-14,-32,63,98,50,6,-3,
109891080737,9,-13,-115,-88,35,-7,9,5,
109891080737,3,21,-5,12,-88,-12,-9,-3,
109891088221,2,-8,-54,-47,-41,20,13,1,
109891088221,4,-4,-91,-68,-47,-50,-8,0,
109891110455,4,-58,-128,-70,-51,-15,-6,-1,
109891110455,4,40,-22,-73,-14,7,8,4,
109891118211,-2,21,71,42,5,-1,-10,-7,
109891118211,0,-19,15,51,26,-55,-10,0,
109891125551,-8,-20,56,-59,-96,-22,-11,-6,
109891125551,-5,18,-6,69,95,16,-8,-9,
109891140584,12,-4,-67,-85,-76,6,17,14,
109891140584,-3,-7,-70,21,-27,-44,-11,-4,
109891155733,13,6,-50,-21,8,15,6,8,
109891155733,-1,-12,83,52,-12,-3,-3,-2,
109891170803,-17,-7,-10,-20,13,-8,-8,-10,
109891170803,0,11,32,-25,-10,7,4,1,
109891178256,1,-12,-128,37,48,13,3,-2,
109891178256,-2,20,-23,-120,-31,3,1,-2,
109891200714,5,6,112,106,45,-16,-3,4,
109891200714,-1,-29,-4,-49,57,46,13,4,
109891215696,1,-2,-72,-92,-95,-9,3,2,
109891215696,0,17,-7,84,-97,-34,-5,-2,
109891230715,-5,-6,-2,-32,16,1,-8,-4,
109891230715,5,-21,-42,-8,20,-8,5,8,
109891238047,-6,-20,3,-46,-68,-21,-11,-5,
109891238047,4,12,47,70,-62,6,3,1,
109891252998,-5,-10,39,9,-42,37,9,-1,
109891252998,1,-23,-128,-110,-89,-15,-1,0,
109891268064,12,31,75,87,-6,-26,-4,3,
109891268064,-10,-31,5,65,74,-4,-10,-6,
109891275524,-8,-22,-82,-58,-30,5,5,-1,
109891275524,1,24,55,-11,-36,-7,-5,-2,
109891290530,0,22,-24,20,34,7,4,1,
109891290530,4,-11,14,-60,-21,0,-1,-1,
109891305524,7,-17,-19,30,19,-14,5,4,
109891305524,-14,17,68,14,-63,-12,-8,-8,
109891312934,-8,16,70,-7,3,-12,-13,-9,
109891312934,3,-22,-64,-31,72,33,2,2,
109891328057,5,-21,-115,-17,-7,-25,8,5,
109891328057,-4,45,117,21,-118,-5,-3,-4,
109891335517,-11,14,13,85,34,23,-8,-10,
109891335517,0,-43,-83,-73,43,9,4,1,
109891358086,-4,-11,-41,-16,38,11,6,2,
109891358086,-5,3,127,75,19,-16,-2,-3,
109891380752,4,40,19,0,127,28,3,3,
109891380752,-11,-12,-10,-19,49,-8,-7,-8,
109891395506,2,-35,-68,-28,-14,-1,-2,2,
109891395506,0,11,38,-7,-44,-16,-5,-4,
109891402930,-4,-6,-17,15,-45,-19,-7,-4,
109891402930,0,-3,7,-22,-60,16,4,0,
109891418020,4,12,62,44,0,-3,-2,-2,
109891418020,-11,23,48,-18,46,-21,-5,-6,
109891425563,-9,-21,-42,3,-11,1,0,-4,
109891425563,18,0,-78,-98,-38,-14,2,7,
109891440526,-1,30,14,99,-41,15,3,-2,
109891440526,-7,-13,12,10,78,16,-1,-2,
109891448213,-3,-13,28,-60,-19,-5,-3,-1,
109891448213,5,-27,-82,26,-59,-39,-8,1,
109891470693,6,20,99,-4,58,20,11,8,
109891470693,-21,24,-22,-3,82,9,-17,-19,
109891478283,3,-3,33,33,-20,-2,2,2,
109891478283,-1,-17,-80,41,37,39,3,-1,
109891493073,0,-15,-64,-52,-85,-1,1,0,
109891493073,5,22,86,45,-65,-12,-1,3,
109891515435,-10,-3,-14,11,73,51,4,-2,
109891515435,1,-42,-35,21,-8,-11,-5,-1,
109891530473,-3,15,51,-34,-36,-30,-8,-2,
109891530473,-2,0,54,49,-33,23,4,-1,
109891553122,5,11,-25,-13,127,6,2,3,
109891553122,-8,-18,-37,21,-3,4,0,-4,
109891583179,1,1,120,35,-54,-21,-4,-1,
109891583179,-9,4,-20,21,68,-3,0,-2,
109891605435,1,-22,16,-15,24,8,-3,-2,
109891605435,-7,-18,-74,-48,-66,-31,-5,-6,
109891613198,-6,-2,11,29,1,26,0,-1,
109891613198,-7,-4,6,5,71,4,-6,-4,
109891628101,7,7,-71,39,-6,4,6,4,
109891628101,10,9,83,-10,84,15,1,5,
109891657920,4,-4,18,64,36,-26,-3,-1,
109891657920,-1,10,-90,-85,-25,6,4,3,
109891673254,13,27,-8,-33,-65,-11,11,11,
109891673254,-16,3,55,17,100,20,-4,-8,
109891680702,-2,-27,64,25,-77,-11,-1,-3,
109891680702,2,-8,-48,19,3,-11,-5,-1,
109891695672,-7,-2,-98,-50,22,-15,3,-3,
109891695672,22,6,96,80,-37,-28,-2,13,
109891710410,-21,1,49,63,127,37,-7,-14,
109891710410,-1,-19,-4,-34,-51,2,1,-2,
109891733252,-1,0,11,5,-67,9,0,1,
109891733252,-6,19,126,-11,-16,-38,-9,-1,
109891755597,-8,28,-17,49,52,29,4,-4,
109891755597,1,-50,-42,-39,-7,-12,1,2,
109891763223,2,-12,-57,-72,-53,1,-5,0,
109891763223,-3,5,-113,19,42,23,5,-6,
109891800594,1,15,43,-45,73,-2,0,-1,
109891800594,-8,25,-12,40,-88,-6,1,-3,
109891815685,4,-45,-60,-83,-57,-5,1,5,
109891815685,7,3,-86,18,52,1,2,2,
109891838008,5,30,-81,8,57,22,5,4,
109891838008,9,-10,102,92,108,-27,-2,6,
109891845749,-7,-1,-3,12,62,-16,-8,-6,
109891845749,7,-5,-11,-30,-20,37,9,2,
109891868242,-2,25,-66,-47,-44,-11,-5,-2,
109891868242,-5,-7,-11,20,100,34,-2,-5,
109891883226,-7,-27,-28,-9,42,18,-4,-8,
109891883226,-4,-4,82,42,13,-21,-14,-4,
109891898266,0,28,-72,-13,-82,-54,-5,2,
109891898266,-5,-3,52,66,36,-14,-12,-6,
109891935661,-15,1,-54,-22,-25,17,1,-8,
109891935661,3,33,-10,-9,-121,12,7,3,
109891950842,-2,-20,-38,-3,28,1,-2,-5,
109891950842,0,-7,16,-56,-84,-6,2,2,
109891965690,-3,40,107,121,127,55,0,-3,
109891965690,-13,-18,-121,-29,-47,-15,-4,-8,
109891972957,6,0,37,46,-105,-26,-3,2,
109891972957,5,-22,-111,-83,48,-2,2,4,
109891980768,-4,-3,46,16,36,18,1,-1,
109891980768,4,-42,-48,-10,-64,-15,2,4,
109891988004,6,32,127,-6,-26,20,2,4,
109891988004,-16,11,-15,37,84,1,-10,-12,
109892018005,3,-62,-119,-30,-68,12,7,3,
109892018005,8,11,63,-26,-105,-51,-3,3,
109892025535,-7,32,-57,80,113,24,-1,-7,
109892025535,-3,17,119,24,29,-7,1,3,
109892040742,-7,20,46,19,-8,-2,-9,-7,
109892040742,4,-39,-128,-48,-15,42,10,3,
109892063195,3,-5,95,-10,-46,-40,-6,0,
109892063195,2,-17,-56,-44,60,10,-3,2,
109892085489,-2,16,34,-8,32,15,-3,-2,
109892085489,-9,-20,28,-10,-23,-18,-1,-6,
109892115393,7,6,-14,30,-16,9,2,2,
109892115393,-3,26,47,-5,47,19,-4,-5,
109892137951,14,1,101,2,-53,-13,0,7,
109892137951,-15,13,21,39,14,-1,-4,-7,
109892167912,-12,14,74,16,-7,1,-3,-8,
109892167912,5,-7,34,25,-57,-27,-7,2,
109892175470,3,14,-6,56,75,35,5,2,
109892175470,1,-22,-128,7,-36,23,6,0,
109892220509,-11,-4,-57,-55,46,-20,-8,-7,
109892220509,3,14,13,-6,9,24,1,1,
109892235653,-2,-20,-51,-67,-32,-16,-4,-2,
109892235653,8,-2,17,17,-15,-20,-2,4,
109892250685,-4,-2,-58,50,22,-8,-1,-1,
109892250685,-3,12,104,64,7,17,0,-3,
109892265716,-7,-6,44,-90,33,-22,-12,-6,
109892265716,0,-10,-92,19,-59,5,6,-2,
109892280737,3,-16,-28,-64,-4,-13,0,1,
109892280737,4,31,15,79,30,-37,-7,0,
109892295513,5,-3,100,41,-3,16,6,4,
109892295513,-6,12,21,9,31,18,-1,0,
109892310557,-9,4,-38,-3,-65,-44,-14,-9,
109892310557,4,-16,-75,-4,-2,-7,5,4,
109892325544,-1,2,116,-86,-115,-29,-2,-1,
109892325544,-1,30,-80,53,86,-2,-5,-3,
109892340624,0,6,-21,68,50,36,9,1,
109892340624,0,35,106,-11,74,-6,-4,2,
109892362917,5,24,95,85,-47,-54,-4,3,
109892362917,-6,-5,-67,-128,-11,4,-1,-3,
109892385420,1,24,-27,-1,-6,-21,-4,-2,
109892385420,-10,9,15,68,44,4,-7,-8,
109892393226,10,-24,-50,-71,-60,20,14,8,
109892393226,-2,10,-39,23,-61,15,1,0,
109892407909,-4,1,-105,-26,-37,-8,-2,-2,
109892407909,3,-24,127,60,-51,-24,-9,-2,
109892415726,9,19,111,18,104,-18,-2,2,
109892415726,-11,-43,-128,-22,8,25,-5,-9,
109892430473,4,-19,-31,5,-35,4,9,3,
109892430473,1,1,-58,-77,-16,-17,-3,0,
109892445417,7,-10,-13,110,66,20,5,5,
109892445417,-9,13,58,-3,-68,0,0,-2,
109892453157,-2,18,-28,23,-40,-5,-2,-2,
109892453157,5,-17,-10,-23,90,24,6,2,
109892475525,-11,12,127,18,-19,-3,-9,-5,
109892475525,-2,8,-10,-6,56,-6,1,-1,
109892498020,-4,-37,-90,12,-88,12,-1,-3,
109892498020,16,12,66,33,118,-9,9,9,
109892505439,-23,-11,-23,-2,-36,3,-10,-13,
109892505439,0,11,-16,-3,-23,15,-1,-3,
109892520684,8,7,105,29,33,21,7,6,
109892520684,-13,-18,-29,-51,-30,9,-9,-10,
109892543228,5,-2,12,7,90,-4,-4,1,
109892543228,1,28,58,104,45,0,-2,-1,
109892572965,7,-8,17,23,43,-6,-5,2,
109892572965,0,5,105,-7,-66,12,8,5,
109892588173,-1,-11,-60,-27,5,-2,0,-2,
109892588173,2,-15,-59,-3,15,10,4,2,
109892595727,3,8,-51,-91,-48,-25,-2,-2,
109892595727,-2,7,96,61,-39,-8,-10,-4,
109892603153,-5,11,-104,-31,16,-12,-2,-5,
109892603153,8,-6,-55,-37,-57,-19,-1,5,
109892617945,-8,-11,15,48,-14,-4,-4,-3,
109892617945,-2,-18,-40,-84,2,11,2,-2,
109892633194,0,14,6,-70,-108,-36,-5,0,
109892633194,16,29,-51,97,75,-23,4,11,
109892640482,-4,-29,-25,-91,-4,17,4,-1,
109892640482,-4,34,39,117,-10,-11,-5,-3,
109892655752,1,-3,-35,0,-55,-9,2,1,
109892655752,0,5,-34,4,9,7,3,-1,
109892678266,0,-29,-21,42,24,2,-4,-1,
109892678266,-1,-27,32,-23,18,-2,4,4,
109892693174,-7,7,-22,40,12,-26,-8,-5,
109892693174,3,-32,-30,-65,-115,0,4,1,
