timestamp,C1,C2,C3,C4,C5,C6,C7,C8,
178176181737,6,17,31,15,-10,-5,1,3,
178176181737,0,-10,-52,-58,-97,-5,-1,0,
178176196912,6,-1,16,-18,93,-9,-5,-1,
178176196912,8,13,50,80,62,14,7,10,
178176204384,-8,-17,-29,-15,-1,-5,-3,-6,
178176204384,6,19,35,88,49,3,0,3,
178176242671,-16,-5,-30,-43,-53,-10,-5,-10,
178176242671,0,-5,-34,-32,-36,-12,-6,-5,
178176271797,-1,-12,-10,-25,-72,7,0,-3,
178176271797,-6,-6,12,27,111,10,0,-2,
178176294555,-10,14,39,49,18,13,3,-1,
178176294555,-13,-28,-64,-101,-92,-8,-9,-15,
178176301747,7,13,18,59,116,-1,0,3,
178176301747,-3,-10,-2,-25,-24,4,2,-1,
178176331668,6,-21,-50,-68,-29,-3,2,3,
178176331668,6,-8,-5,-14,-5,-6,-2,0,
178176346739,-5,9,-11,-42,-101,-2,0,-4,
178176346739,2,-7,-22,-31,52,1,4,5,
178176361913,-3,-2,-17,-30,-28,-10,-6,-1,
178176361913,-8,-17,-15,30,4,2,-7,-7,
178176376710,5,9,3,-61,23,5,4,6,
178176376710,7,2,9,32,-15,-5,0,5,
178176391994,5,5,22,13,-54,-23,-8,1,
178176391994,1,-5,-23,-41,53,2,1,-1,
178176422003,2,-11,-12,22,17,1,-3,-2,
178176422003,1,0,2,-8,-8,3,3,2,
178176429493,-15,-8,-12,-8,-4,-8,-12,-13,
178176429493,11,15,14,-49,-22,6,7,7,
178176436915,1,11,-3,-29,-49,4,3,0,
178176436915,-6,-2,9,16,46,3,-2,-5,
178176451661,2,-10,-35,-49,-9,-3,0,1,
178176451661,0,-1,6,5,-6,-5,-3,-1,
178176474393,-6,4,17,-41,-1,-5,-2,-4,
178176474393,-5,7,14,82,-9,2,-5,-3,
178176490570,-4,-24,-19,-37,5,5,4,-1,
178176490570,5,20,13,44,45,16,4,4,
178176496834,10,31,57,117,87,23,14,17,
178176496834,-18,-17,-54,-60,-87,-5,-11,-19,
178176519255,8,2,50,42,96,-5,-1,6,
178176519255,0,7,10,22,31,12,4,-2,
178176534228,-1,6,-21,-24,-34,6,-1,-2,
178176534228,-5,6,9,10,-19,-12,-4,-6,
178176556769,13,4,-16,-3,5,3,3,10,
178176556769,2,-6,28,10,-23,-14,-7,-4,
178176572032,4,20,35,65,70,20,10,8,
178176572032,-5,0,-4,-33,-67,-3,0,-1,
178176579402,-4,-5,-1,-9,-19,3,-1,-4,
178176579402,14,-15,-72,-96,-80,-24,4,9,
178176611401,-1,18,43,22,63,10,-3,-5,
178176611401,-9,-11,-10,68,-43,0,0,-2,
178176616733,-6,9,24,17,-2,3,0,-4,
178176616733,-21,-10,-7,-9,-10,-10,-13,-19,
178176624321,16,12,13,19,-56,-6,5,10,
178176624321,-5,-11,-34,-66,17,-15,-9,-7,
178176654159,3,-14,18,40,-19,-7,-4,1,
178176654159,-6,11,20,43,79,20,6,0,
178176669398,4,-7,-21,29,47,25,10,6,
178176669398,-7,-4,-7,-44,-29,-20,-6,-7,
178176676910,5,-5,16,27,15,-5,-2,2,
178176676910,12,-3,-48,-43,-47,9,5,8,
178176699262,-2,-5,21,31,92,4,2,-1,
178176699262,-4,-21,-17,-9,-5,-6,-6,-7,
178176706956,10,9,-3,-33,-5,4,6,8,
178176706956,-20,-5,-7,-3,-49,-14,-11,-14,
178176722114,5,2,-8,34,20,17,8,7,
178176722114,6,-42,-76,-103,-103,-25,-4,-2,
178176759356,4,18,35,78,43,-13,1,5,
178176759356,-24,18,-15,-10,35,13,-8,-21,
178176766677,1,-8,-4,-33,-22,-4,-4,-4,
178176766677,5,-5,8,-49,-89,-6,0,4,
178176774336,-3,19,44,21,15,-6,-7,-5,
178176774336,-6,13,44,36,28,8,2,-1,
178176811867,-2,-17,-25,-83,-56,-9,-5,-5,
178176811867,8,2,21,66,42,1,3,6,
178176841875,-6,0,14,-10,-88,-14,-9,-5,
178176841875,7,10,0,1,32,1,4,8,
178176850938,-5,-8,-1,7,7,-4,-3,-5,
178176850938,13,9,20,57,10,4,6,12,
178176864212,-14,-10,-30,-43,-22,-4,-6,-10,
178176864212,1,3,3,-35,-7,-2,-1,4,
178176871685,2,8,13,3,21,5,2,2,
178176871685,-17,-4,-29,-47,-48,-6,-4,-14,
178176901940,8,-34,-47,-19,-18,-4,3,8,
178176901940,-2,11,39,-24,2,1,0,1,
178176916739,9,11,35,32,29,3,0,4,
178176916739,2,-15,-50,-24,1,-5,-1,0,
178176939432,13,-1,17,-17,4,7,5,12,
178176939432,-20,2,18,39,20,-6,-8,-12,
178176946819,-1,6,1,-20,-46,1,-1,-4,
178176946819,-5,-22,-30,-34,-5,-10,-7,-6,
178176961900,-3,-20,-29,-47,6,5,-2,-4,
178176961900,6,-2,-8,-19,-59,-7,3,6,
178176969191,-7,17,36,55,127,6,-2,-5,
178176969191,0,-20,-56,-28,-44,4,-3,-4,
178176991880,5,15,39,68,-2,6,5,4,
178176991880,-5,-6,-37,-72,-7,-4,-6,-9,
178177021636,7,-3,-7,-10,-18,-6,2,5,
178177021636,3,-4,-2,1,-27,4,2,4,
178177029126,-4,7,39,70,92,-9,-4,-2,
178177029126,-6,4,-20,-50,-79,8,3,0,
178177051649,-4,-23,-16,21,127,17,-3,-9,
178177051649,-7,-9,32,62,34,0,-7,-7,
178177074417,14,-3,-35,-16,-2,4,4,9,
178177074417,-2,18,25,4,-33,-10,2,-1,
178177081639,-4,-3,-1,-13,31,0,0,-2,
178177081639,-16,-18,18,13,-30,-2,-2,-9,
178177096933,-13,-1,-20,-26,50,0,-4,-9,
178177096933,-1,4,19,10,-22,5,-1,-3,
178177119252,0,15,-10,-54,-128,-10,1,0,
178177119252,-9,-8,-32,-42,46,-12,-8,-10,
178177164240,-8,3,16,9,-34,-5,-1,-2,
178177164240,1,-12,-41,-55,37,-7,-9,-7,
178177179824,2,15,23,74,42,26,13,12,
178177179824,-8,-1,7,22,63,3,-5,-8,
178177194151,9,-12,-10,-26,-31,-2,0,2,
178177194151,5,-9,-22,-31,-57,-14,-2,0,
178177201694,-2,7,13,-4,-30,-13,-4,0,
178177201694,-14,10,11,6,29,4,-4,-5,
178177216671,3,-10,-1,-33,24,-12,1,6,
178177216671,0,0,6,19,45,8,1,3,
178177231644,-11,-1,-8,-17,27,2,-7,-8,
178177231644,8,30,75,98,13,4,5,6,
178177246662,-11,-25,-35,3,-33,-1,-2,-12,
178177246662,14,-16,-32,-90,-56,-17,5,11,
178177261616,14,6,1,46,32,14,7,12,
178177261616,-27,3,24,26,-14,-11,-18,-24,
178177276605,-4,-12,-21,-82,37,-7,-5,-7,
178177276605,20,10,26,86,44,15,10,16,
178177291679,-8,-4,3,14,27,3,-1,-6,
178177291679,-8,-8,-49,-74,-69,-17,-7,-9,
178177299150,1,12,61,79,73,6,1,0,
178177299150,-3,-14,-18,-25,-23,-1,1,-3,
178177314226,-2,11,12,-3,-35,-5,-1,-6,
178177314226,3,10,9,6,6,-1,0,0,
178177344362,-14,-14,-7,-16,-5,6,-7,-13,
178177344362,-2,-18,-14,-13,-23,-1,1,1,
178177351785,-8,4,1,12,32,-4,-5,-7,
178177351785,1,-9,-3,6,-17,-5,-1,1,
178177366646,7,0,23,23,5,-8,-1,5,
178177366646,-13,1,4,19,78,5,-8,-11,
178177389253,0,2,18,34,26,11,7,3,
178177389253,7,-3,-37,-82,-14,3,0,0,
178177419371,-4,-12,-19,15,-79,-14,-2,-2,
178177419371,2,19,10,-36,77,26,10,9,
178177441918,-26,3,5,115,116,13,-14,-23,
178177441918,6,8,27,34,-27,-8,0,0,
178177449141,-2,-19,-41,-71,-36,-7,-2,-5,
178177449141,2,-7,-17,-29,-52,-15,-2,-1,
178177471643,-2,-17,-13,18,-28,-9,-5,-2,
178177471643,-2,17,22,1,14,2,-2,0,
178177479203,-13,-23,-61,-65,38,2,-5,-10,
178177479203,3,11,42,64,3,2,4,5,
178177486565,-9,11,2,-16,-20,-1,-4,-6,
178177486565,10,-3,18,21,14,-1,5,5,
178177494108,0,-18,-29,-12,-37,-1,-1,-2,
178177494108,-9,-16,-31,-20,13,-6,-7,-5,
178177501574,4,37,39,68,38,11,2,4,
178177501574,-13,-9,-6,-16,-4,-13,-8,-13,
178177516581,4,-5,-14,0,-66,8,-1,0,
178177516581,-12,-17,-16,-65,-8,-14,-8,-10,
178177539086,-1,4,1,11,4,0,1,-1,
178177539086,6,-10,-4,-28,6,-4,-3,-1,
178177546752,-7,-34,-59,-125,-114,-13,1,2,
178177546752,-1,21,63,103,84,12,-1,3,
178177561638,1,5,-7,-13,-28,-5,4,1,
178177561638,-10,-15,-50,-114,-91,-20,-7,-6,
178177584318,5,6,35,77,35,1,-6,-3,
178177584318,-7,-2,6,8,-12,10,5,2,
178177599086,4,-7,-12,-1,39,-4,2,1,
178177599086,-6,-7,-15,-56,-29,-6,-2,-4,
178177606561,-6,12,51,51,7,8,-2,-5,
178177606561,7,12,-3,28,-90,2,3,1,
178177629271,-7,-3,-25,-58,5,-3,-4,-5,
178177629271,5,-9,-4,-13,-65,-7,-1,3,
178177644296,-6,-3,25,65,48,-6,-4,-2,
178177644296,-4,-6,-38,-24,18,1,-3,-3,
178177666748,6,20,63,5,-26,12,6,5,
178177666748,5,15,13,10,7,0,1,2,
178177689329,-1,-18,-48,-54,-66,-2,-2,-4,
178177689329,0,-16,-11,14,64,-16,-7,-3,
178177696864,6,7,11,-8,-10,3,3,4,
178177696864,-13,0,-5,-81,-10,4,-3,-9,
178177711597,4,-3,-5,-1,-56,-7,-3,1,
178177711597,-3,9,11,-21,11,-12,-5,-3,
178177719062,3,-7,-28,13,16,9,4,4,
178177719062,14,3,10,12,29,-2,2,8,
178177734079,8,-3,-13,-45,-42,-15,-3,3,
178177734079,3,7,28,114,106,15,5,4,
178177749095,-5,4,21,4,27,12,1,-1,
178177749095,4,-2,-8,-42,-48,-5,2,3,
178177764078,-5,3,12,40,58,11,2,1,
178177764078,-14,-5,-4,-38,-77,-16,-12,-15,
178177779097,13,9,0,27,53,8,6,11,
178177779097,-14,-22,-21,-9,-46,0,-5,-13,
178177786809,12,-5,-24,-69,25,-10,1,7,
178177786809,-1,13,4,60,-13,10,4,4,
178177801652,-4,-2,21,53,27,2,-2,-2,
178177801652,-6,-2,-8,-63,-72,-9,-6,-8,
178177816643,5,-13,-6,-14,-10,-10,2,9,
178177816643,-12,-10,-8,10,17,2,-3,-9,
178177831621,14,19,9,-17,-38,7,8,14,
178177831621,-10,12,15,13,12,-7,-1,-4,
178177839116,0,-23,-26,8,14,3,-1,2,
178177839116,-4,-13,-33,-81,-34,-8,-3,-6,
178177861539,8,0,8,76,28,1,6,6,
178177861539,-10,-9,23,50,22,-3,-9,-8,
178177869237,7,22,25,11,-1,5,2,1,
178177869237,-6,-4,-3,10,-6,2,-1,-3,
178177884069,-11,-5,-18,-51,-45,-12,-9,-10,
178177884069,4,7,-2,-13,29,-1,0,2,
178177906907,-1,-1,11,54,-2,-9,-2,0,
178177906907,10,10,41,70,50,15,8,9,
178177929358,1,-2,-29,-27,-46,-5,-3,-3,
178177929358,-9,-8,-20,-57,-63,-5,-1,-4,
178177944056,0,-8,-11,-41,29,-6,-5,-2,
178177944056,-2,10,25,21,-53,-9,0,2,
178177966592,-8,3,-14,-5,29,-2,-4,-5,
178177966592,2,-10,-20,-34,-50,-11,-5,0,
178177974128,-3,1,26,22,69,-1,1,0,
178177974128,14,-3,-15,-4,26,13,6,6,
178177981614,-1,-12,-18,-74,-18,-6,-1,-3,
178177981614,-9,21,20,44,24,-3,-5,-4,
178177989138,-8,-24,-64,-53,-85,-10,-8,-8,
178177989138,3,29,85,64,-10,-7,2,4,
178177996591,2,24,33,62,41,3,3,4,
178177996591,-8,-24,-43,-91,-1,6,-1,-6,
178178004084,7,-2,9,23,-3,-11,-5,3,
178178004084,9,5,27,52,-82,10,10,10,
178178011603,9,-15,-44,-59,-54,-8,2,5,
178178011603,-5,8,25,-23,17,-8,-4,-4,
178178026777,-17,-4,-7,-41,-52,-6,-8,-9,
178178026777,-1,-6,-3,47,-7,-5,0,1,
178178049170,-6,8,28,40,47,8,-4,-4,
178178049170,4,-4,-19,-8,10,10,4,6,
178178056609,-1,-1,-20,-77,-78,-11,0,-4,
178178056609,8,17,52,72,76,9,5,5,
178178071817,-5,-23,-25,-27,-35,2,-2,-4,
178178071817,1,2,-14,41,50,-1,0,0,
178178094092,4,-2,23,87,-29,-6,1,4,
178178094092,-2,-3,-1,-22,7,-5,-4,-2,
178178101647,4,6,9,7,2,10,6,2,
178178101647,2,-12,-23,-42,8,2,-1,1,
178178116668,-6,-13,-31,-63,-85,-12,-3,-6,
178178116668,5,3,-1,58,49,5,1,4,
178178139261,-9,4,37,-7,-73,-16,-6,-7,
178178139261,-10,7,3,13,72,5,0,-3,
178178154303,-6,23,80,98,54,5,-2,-4,
178178154303,-12,-8,-16,-25,-20,-6,-10,-14,
178178184136,-3,-14,2,-6,-29,-6,-1,-2,
178178184136,-2,-8,-46,-70,-54,-14,1,2,
178178206613,5,6,-3,21,-34,-7,-1,4,
178178206613,-10,-22,-17,-66,-38,-12,-9,-10,
178178221800,10,15,9,-7,-12,13,12,13,
178178221800,-8,20,22,67,42,-2,-2,-7,
178178236810,2,-10,-16,-67,-26,-5,1,-2,
178178236810,9,16,34,94,35,5,2,3,
178178244329,-2,9,10,50,55,15,2,-3,
178178244329,-7,-25,-49,-73,-31,-17,-8,-8,
178178259337,-1,4,-23,15,79,-7,-3,-1,
178178259337,2,14,43,100,66,25,9,3,
178178274250,-6,-17,-22,-73,-58,-11,-5,-6,
178178274250,-1,-7,-12,22,-12,-6,-3,0,
178178281661,0,4,16,43,26,1,-5,-1,
178178281661,0,-16,-39,-31,8,5,-4,-1,
178178289242,-2,17,37,33,5,-3,2,-2,
178178289242,-12,-16,-48,-75,-61,-22,-8,-8,
178178311704,4,-17,-11,-41,-5,6,2,6,
178178311704,-1,20,1,6,-2,3,1,0,
178178326674,-2,-11,-4,-50,-21,-5,-1,1,
178178326674,6,14,64,83,6,4,4,5,
178178341560,10,3,7,53,-2,3,7,10,
178178341560,-5,-25,-59,-86,-23,2,-1,-5,
178178349159,-3,-3,1,-14,-8,-7,-7,-5,
178178349159,-2,26,43,37,51,13,4,2,
178178364236,2,3,-11,-38,-54,-9,-3,-2,
178178364236,2,5,18,15,-12,-6,3,4,
178178379322,1,6,12,-28,1,3,-1,0,
178178379322,-3,-7,-23,-10,-40,-8,-3,-6,
178178386830,-1,-8,5,19,-57,3,-1,-2,
178178386830,-7,-4,11,19,98,7,-7,-6,
178178409334,-2,21,47,107,52,8,3,3,
178178409334,-13,-6,-20,-71,-25,-16,-10,-13,
178178416584,4,7,-13,-27,21,7,4,3,
178178416584,7,9,24,68,-8,3,0,-2,
178178424276,-3,-21,-35,-64,-108,-23,-4,-4,
178178424276,1,-16,-1,-2,81,5,-1,3,
178178431616,-13,-4,-16,16,64,4,-6,-5,
178178431616,7,22,14,-28,-22,6,11,11,
178178454148,-6,-9,-9,-42,-50,-24,-10,-8,
178178454148,3,25,62,72,50,20,7,7,
178178469358,-1,-9,-23,-10,111,4,-3,-4,
178178469358,-7,-15,-15,-23,-62,-19,-8,-11,
178178484091,9,10,3,-2,47,6,3,7,
178178484091,-11,3,9,32,-2,3,-5,-9,
178178499115,-1,-5,-15,-7,-38,0,0,1,
178178499115,-6,-11,-23,-67,-59,-14,-7,-5,
178178521588,3,-4,-9,-19,3,4,1,3,
178178521588,0,15,-6,-24,-62,-1,0,-1,
178178529212,-8,0,37,35,50,4,-3,-3,
178178529212,4,-19,-31,-58,-17,0,0,1,
178178551763,2,-12,-5,15,69,-8,-5,2,
178178551763,0,23,38,23,-12,8,6,6,
178178581837,5,30,12,9,-5,5,4,4,
178178581837,-15,-26,-45,-53,25,-2,-10,-14,
178178596702,0,-5,-6,-17,-42,-2,0,1,
178178596702,6,0,11,-2,26,-8,0,4,
178178604091,1,14,19,57,38,11,4,0,
178178604091,-8,-26,-46,-69,-76,-4,-6,-9,
178178619069,-3,-8,4,-11,-15,-4,-2,-4,
178178619069,1,-5,-49,-50,-66,-8,0,1,
178178626510,-22,-7,-3,-62,-61,-14,-11,-19,
178178626510,6,-10,11,40,25,-8,-4,4,
178178634132,-2,18,54,50,-2,7,0,-3,
178178634132,7,-13,-26,-76,-70,-6,-1,3,
178178641623,-3,14,5,59,54,4,0,3,
178178641623,-22,-16,-36,-72,-61,-11,-11,-19,
178178656545,0,-4,-11,4,41,-3,-1,1,
178178656545,-2,19,59,84,46,6,2,-3,
178178664084,6,-10,-47,-82,-47,-6,0,4,
178178664084,14,-1,12,33,34,1,5,8,
178178679083,-3,-14,-25,-35,-9,7,5,6,
178178679083,-9,-17,-28,-42,-29,-2,-5,-10,
178178694158,-10,-8,-15,-38,-57,-16,-7,-11,
178178694158,4,-8,-8,-22,-60,-6,0,2,
178178701615,1,2,-10,-26,50,6,7,7,
178178701615,-9,8,3,-3,-4,-6,-8,-8,
178178716693,-5,-9,-2,-36,-26,-11,-7,-6,
178178716693,10,-8,-25,13,9,-1,6,10,
178178724165,-3,-11,-5,-28,-45,-1,-3,-7,
178178724165,14,23,36,69,72,16,11,15,
178178746780,-15,3,-2,-37,-81,-16,-12,-16,
178178746780,-3,25,32,46,78,-3,1,2,
178178761835,4,15,95,118,102,15,1,0,
178178761835,3,-7,-14,-12,-24,-1,4,7,
178178776695,-7,2,26,34,42,-5,-5,-4,
178178776695,4,13,-10,-23,-2,8,3,1,
178178791796,-3,18,11,-19,-68,-7,-2,-2,
178178791796,-5,-16,-34,-56,15,-6,-6,-6,
178178806692,0,-15,1,49,-3,5,5,4,
178178806692,-6,1,-12,-11,60,3,-8,-8,
