timestamp,C1,C2,C3,C4,C5,C6,C7,C8,
6220354002,-5,62,35,-7,7,-10,26,2,
6220354002,-4,-48,-92,-95,-27,-18,-94,1,
6220367008,4,-48,-68,-96,-16,-21,39,4,
6220367008,-18,55,78,93,-11,-8,-62,-22,
6220374458,-5,-34,-80,-47,-16,-32,28,-4,
6220374458,-16,-21,25,-32,-21,70,48,8,
6220382429,14,26,84,101,14,-1,-4,8,
6220382429,7,6,-123,-128,-60,-15,37,9,
6220399008,11,45,119,127,26,-20,-17,17,
6220399008,4,21,-10,68,-60,-14,-22,2,
6220404616,-15,-59,-18,2,79,40,16,-27,
6220404616,3,49,114,67,-29,10,-10,3,
6220419584,-3,32,-28,-111,-24,5,-54,-6,
6220419584,3,-40,-19,44,-93,-58,1,17,
6220434917,-17,-12,-50,-32,91,39,-37,-18,
6220434917,7,1,38,5,62,35,90,-16,
6220443623,-3,41,127,116,-94,-84,-40,-5,
6220443623,3,-35,-70,-70,35,63,31,19,
6220494626,1,-30,-8,-35,-99,-33,-17,-4,
6220494626,21,83,99,103,69,-7,2,4,
6220509516,0,28,-111,-114,-22,5,90,17,
6220509516,1,-28,-37,-60,65,-10,-46,-10,
6220517185,10,-37,-74,-56,34,28,20,10,
6220517185,-29,-16,-44,-51,-128,-45,-44,-24,
6220524658,-17,-39,-98,-25,28,7,-15,-2,
6220524658,25,31,71,60,90,34,9,2,
6220541002,30,52,87,121,-68,-15,-12,5,
6220541002,-33,0,15,49,75,87,64,-1,
6220556652,-9,-18,-57,-36,15,13,10,-8,
6220556652,13,71,49,66,-56,-13,-15,-10,
6220562147,7,13,35,86,39,-36,15,-11,
6220562147,-24,-108,-118,-128,-26,21,2,-20,
6220577376,-8,42,55,87,-46,-94,-27,-3,
6220577376,12,37,-9,124,37,66,45,18,
6220584456,-3,-19,-12,-66,9,6,7,-2,
6220584456,-4,3,-128,-105,-42,-43,-8,32,
6220593583,-3,-28,95,-103,-38,-14,-41,-45,
6220593583,0,37,67,95,-73,-31,-24,-17,
6220599776,7,-8,-60,-110,56,44,-5,20,
6220599776,7,1,29,15,2,-18,-18,-8,
6220614555,-18,-71,-125,-95,-29,63,3,21,
6220614555,-1,87,57,46,-13,-66,-19,-11,
6220621977,8,-26,-11,87,26,9,-13,12,
6220621977,-9,4,-27,-47,-39,-20,-15,-27,
6220637145,11,-37,-69,53,-19,-5,62,9,
6220637145,-5,-6,-9,-9,71,64,-55,-18,
6220645903,-11,20,33,-10,-29,-24,-26,-22,
6220645903,-3,-15,35,-14,-34,-88,-35,2,
6220659787,4,-32,78,65,52,27,-9,-2,
6220659787,5,42,-128,-12,-8,8,91,19,
6220666956,-12,-30,-6,-58,-27,7,-19,17,
6220666956,9,17,21,75,92,-12,-6,-4,
6220682010,-3,32,-7,29,-21,6,23,16,
6220682010,16,-80,-87,-121,-16,9,-33,-13,
6220689556,-54,38,52,65,95,17,20,-11,
6220689556,4,57,74,80,-44,-45,-28,-7,
6220705884,11,78,27,-53,29,75,-7,-4,
6220705884,23,-55,-59,-76,-4,-19,43,36,
6220727057,-7,-41,-55,-77,-9,6,14,-27,
6220727057,-10,-51,-68,42,-52,-14,-1,-1,
6220741924,3,76,94,94,59,-5,-45,-11,
6220741924,4,-4,-90,-4,-19,-20,46,4,
6220764405,-6,0,-89,-74,-30,13,-10,1,
6220764405,-8,28,127,118,-7,-75,-79,-26,
6220772146,1,-14,18,69,39,13,33,-5,
6220772146,-12,-38,-104,-128,-53,24,-26,-9,
6220787026,-1,2,94,52,-111,-8,-6,8,
6220787026,14,25,64,56,61,-8,20,-1,
6220802064,-3,19,-65,-81,53,0,-3,-4,
6220802064,-16,-97,-87,-94,-52,-69,-12,-10,
6220816914,9,92,-29,-49,-9,16,20,-7,
6220816914,-8,-13,22,-54,3,14,5,4,
6220839508,34,7,-73,-82,56,23,-78,30,
6220839508,11,103,127,127,55,53,34,5,
6220854487,-2,30,-116,-103,-61,-68,-9,-7,
6220854487,-14,-83,21,-15,-3,-10,10,-28,
6220862114,3,2,98,97,53,58,-37,14,
6220862114,1,15,-92,-77,70,-45,52,16,
6220884426,-12,-9,-32,-28,-96,-62,-89,-14,
6220884426,-6,51,26,34,110,85,49,-33,
6220899413,10,8,-25,-36,2,-26,-34,-4,
6220899413,16,45,-35,22,-24,65,45,21,
6220914414,0,-43,-119,-128,-46,-4,-45,7,
6220914414,-20,-94,-128,-128,-84,-48,-7,-15,
6220937065,-17,-5,121,91,-27,-44,17,-15,
6220937065,25,22,81,84,6,-50,-22,21,
6220951986,19,16,-104,-72,1,5,29,-5,
6220951986,-34,0,22,-40,-55,-57,-83,-11,
6220966914,1,-10,-108,-76,-14,-64,47,6,
6220966914,3,-13,-44,-22,-59,13,-30,-3,
6220982100,10,11,67,4,76,40,-4,0,
6220982100,-34,-65,-28,-128,-56,-4,42,-12,
6220996983,1,-5,38,5,35,-63,-96,-17,
6220996983,22,18,106,127,5,25,14,0,
6221027179,22,16,77,18,-41,-67,-5,43,
6221027179,-37,0,-32,-39,-51,12,23,-12,
6221041849,13,50,-22,66,68,-35,1,23,
6221041849,-10,-38,-73,-107,-25,64,-32,-8,
6221049429,27,-45,-28,-5,-16,-35,11,1,
6221049429,17,7,-45,12,29,11,-6,6,
6221072151,-15,12,-32,0,-62,-77,1,-10,
6221072151,-20,-33,-62,-73,-65,33,-43,-21,
6221087188,29,121,115,14,-29,57,-38,42,
6221087188,6,-63,-108,-120,-67,-87,32,11,
6221102032,-26,-99,-92,-63,-29,-24,31,-16,
6221102032,19,39,107,74,-98,-66,-38,-25,
6221116889,17,34,90,84,57,5,-19,-6,
6221116889,15,-21,-22,51,88,28,40,-8,
6221131922,17,-64,-128,-44,85,81,18,17,
6221131922,-44,23,127,76,28,-27,-40,-14,
6221147011,17,99,64,119,31,-30,32,-9,
6221147011,12,-103,-72,-128,93,21,99,45,
6221162082,-15,32,-14,-18,-92,-11,-72,-3,
6221162082,-3,-17,59,6,14,-31,-9,-38,
6221177161,-14,-26,-49,-83,62,63,-41,-20,
6221177161,8,-9,-12,47,-66,-32,-13,8,
6221191934,-8,-55,47,-2,1,13,28,4,
6221191934,-8,-47,-116,-109,-7,-10,-8,14,
6221207071,-14,-96,-93,-60,42,-2,-22,-24,
6221207071,9,82,73,82,-39,59,38,0,
6221221933,-17,-11,64,69,-61,23,29,-1,
6221221933,9,-5,-46,16,127,25,-17,7,
6221237140,-1,-22,-100,-69,-61,-41,29,18,
6221237140,-15,-11,-38,-15,-6,-1,-41,-19,
6221251993,13,-21,-115,-31,42,97,-39,-18,
6221251993,-36,-15,52,-39,-128,-128,-9,-6,
6221259700,11,20,6,60,2,15,54,18,
6221259700,29,29,-11,111,51,48,-7,34,
6221274394,7,59,127,127,42,-8,-61,10,
6221274394,18,21,-11,-68,40,70,50,18,
6221289621,-33,-64,42,-12,-50,-43,-57,-27,
6221289621,22,1,76,78,-22,-2,-57,-3,
6221296991,-22,-7,-98,-128,-55,-33,20,0,
6221296991,2,38,97,95,61,-57,-13,-1,
6221311862,23,50,95,37,36,9,28,15,
6221311862,16,-29,37,-94,-34,15,3,-9,
6221319479,-20,-27,-12,93,70,17,38,-10,
6221319479,-15,7,-92,-111,21,17,0,-1,
6221334509,-11,-40,-128,-128,-98,36,17,-11,
6221334509,-14,-62,127,69,-47,-124,-33,4,
6221349391,24,86,67,115,112,60,28,36,
6221349391,-13,-56,-128,-128,-65,-18,-25,-39,
6221357168,-1,-88,-39,-2,89,-1,8,1,
6221357168,3,73,111,126,35,-5,-28,-6,
6221372123,26,73,-52,10,-2,-13,0,49,
6221372123,-18,-6,-86,-66,-31,14,41,-4,
6221379439,-9,24,127,108,-48,-36,-91,-28,
6221379439,5,-20,-83,-57,-32,20,-3,-4,
6221394382,-1,-8,-70,-128,-1,-31,-32,-1,
6221394382,-7,-33,52,62,-49,34,28,10,
6221409609,9,78,109,65,24,5,-33,-16,
6221409609,-17,68,49,64,23,-11,43,5,
6221416869,9,13,-58,-98,-114,1,57,12,
6221416869,6,-12,59,-14,117,35,-36,-15,
6221439521,-4,-81,-116,-36,-82,-82,46,2,
6221439521,-8,-101,-125,-95,-103,-26,-36,-13,
6221446928,-5,113,127,127,33,20,47,-9,
6221446928,24,-4,-128,-100,56,68,-44,26,
6221462088,-6,16,76,72,-32,7,-84,-15,
6221462088,-6,-2,22,71,72,65,111,8,
6221476937,-8,-41,3,-46,0,-45,-84,-14,
6221476937,14,34,-19,127,-1,83,-38,2,
6221491912,-23,-32,40,-48,100,15,-42,-32,
6221491912,4,57,77,35,127,39,33,9,
6221499391,9,-102,-68,-79,-20,-36,-19,12,
6221499391,-25,118,83,102,-28,24,-43,-14,
6221514493,36,-1,-27,90,81,10,47,-23,
6221514493,-43,12,-72,-128,-105,-71,-31,4,
6221529346,-12,-32,-6,10,-95,-2,5,-9,
6221529346,-28,-36,-62,-92,-10,-13,-4,-16,
6221536870,0,15,125,114,-49,-6,38,-2,
6221536870,18,-56,-54,-46,121,14,-15,10,
6221551858,-14,-32,-53,-48,-75,-15,10,-10,
6221551858,12,60,127,70,94,60,61,-28,
6221559337,-2,26,-105,-4,-109,-110,-74,2,
6221559337,3,-53,32,-66,-73,21,-32,-4,
6221574347,-24,-16,-76,-91,8,31,-24,-67,
6221574347,0,-52,-93,-61,-15,-31,18,-24,
6221596818,-32,21,56,31,20,1,-55,-12,
6221596818,-7,-29,-98,-96,-99,-54,0,-16,
6221604328,7,26,127,127,26,-31,19,39,
6221604328,35,-28,34,74,25,24,16,11,
6221619327,3,41,-73,-128,26,23,67,-1,
6221619327,-6,-21,75,127,-46,-52,-53,5,
6221626803,8,-3,-128,-128,89,81,49,22,
6221626803,-32,-95,79,47,-17,-32,-71,-23,
6221641866,5,7,-54,-11,-32,34,-74,-11,
6221641866,0,-38,-107,-89,-46,-30,-39,0,
6221657062,4,-72,-72,-81,-91,-29,47,38,
6221657062,-2,120,127,124,92,60,23,-10,
6221686900,-1,-4,-101,24,36,-37,-34,-5,
6221686900,25,-74,82,-13,-19,-16,35,-2,
6221694337,19,127,108,51,18,42,39,13,
6221694337,7,-46,-112,-119,-41,3,28,16,
6221709439,-14,-107,-115,-41,120,-9,2,-22,
6221709439,9,57,56,7,-83,-71,75,29,
6221724666,-36,100,39,-88,-113,-23,19,-10,
6221724666,-56,15,45,117,116,17,2,-31,
6221739533,8,-13,-72,-103,-110,24,35,11,
6221739533,5,37,127,-47,22,-1,-11,10,
6221754399,2,-112,-45,-39,31,-29,3,-36,
6221754399,-9,-88,-103,-67,-128,-62,-31,5,
6221777164,-25,-27,103,110,44,-85,-33,6,
6221777164,35,61,49,85,13,-22,13,27,
6221799347,31,0,-107,-95,47,101,-8,6,
6221799347,0,21,83,65,5,-48,72,14,
6221806933,1,72,33,11,56,64,1,5,
6221806933,8,-13,-29,-116,-68,-9,-40,-2,
6221814442,-16,-104,-91,-92,-92,-51,-47,-20,
6221814442,-26,47,33,63,-27,-20,1,-24,
6221829410,19,29,-79,-6,-17,6,37,36,
6221829410,17,65,116,1,77,-5,-30,-50,
6221836964,6,73,127,127,59,4,-84,-16,
6221836964,13,-16,-50,58,-7,-8,60,25,
6221852014,7,19,-12,87,-100,20,-55,0,
6221852014,20,10,-38,47,127,27,41,21,
6221866914,-26,-72,-8,-19,-64,-5,-62,-2,
6221866914,16,109,35,83,70,18,67,15,
6221874443,24,-53,-128,-128,-7,-15,57,29,
6221874443,-36,-26,22,27,-94,-12,-76,-33,
6221889560,-32,-68,127,24,-73,-87,-20,-16,
6221889560,47,54,-69,-2,103,64,25,14,
6221904601,16,70,-42,22,41,56,55,25,
6221904601,-9,-128,-110,-115,-55,-79,11,8,
6221911960,32,85,127,127,21,12,30,0,
6221911960,-26,34,36,28,29,28,1,-6,
6221919501,6,-36,-85,-89,-108,-78,1,19,
6221919501,-15,-40,-61,-31,101,127,47,-40,
6221934592,3,-45,-35,-26,-70,-76,-54,-3,
6221934592,-19,-7,27,-32,-68,28,22,-8,
6221949571,18,41,2,96,27,37,40,10,
6221949571,11,73,-103,-127,11,-92,21,32,
6221957080,-21,-77,-61,127,47,49,-51,-48,
6221957080,-1,43,100,-27,-29,-7,11,39,
6221971907,16,63,-114,43,-68,29,-47,-16,
6221971907,2,-68,-84,-104,32,-74,-40,-16,
6221979505,-4,34,76,56,94,30,46,19,
6221979505,9,-26,-25,33,58,-86,-6,16,
6221994578,-2,-36,22,17,-14,10,0,-14,
6221994578,14,-86,-47,-48,-23,81,-35,-12,
6222009506,-17,127,127,127,-50,-57,-1,7,
6222009506,28,10,-52,14,-6,35,73,21,
6222017087,-7,-90,-63,-72,-60,76,9,7,
6222017087,-11,127,127,127,21,-48,8,-12,
6222031922,30,-50,-112,-29,36,54,-45,16,
6222031922,-10,-20,-48,-64,-128,-106,50,16,
6222039398,3,23,72,-55,58,52,-49,-16,
6222039398,-8,-46,-23,-5,68,-49,15,14,
6222054535,24,107,-97,1,66,16,38,38,
6222054535,10,-10,-120,-97,-113,-21,14,13,
6222069502,14,-77,-76,-93,23,52,9,-10,
6222069502,-48,-52,64,36,-123,-35,-82,-14,
6222077067,-26,7,31,72,19,54,67,0,
6222077067,15,48,-2,77,17,-18,-15,-10,
6222091991,-1,-44,-70,-47,59,-6,52,12,
6222091991,18,-39,31,25,-128,-28,-41,20,
6222099481,-18,61,39,63,65,-57,40,-5,
6222099481,-21,-33,9,-61,-27,62,-15,-37,
6222114445,-12,25,127,100,51,-77,97,13,
6222114445,35,52,-73,-67,32,13,-70,28,
6222129475,1,-7,78,-30,-81,-29,-5,-4,
6222129475,9,-3,74,-91,92,34,-23,18,
6222144402,-4,54,59,28,-25,11,27,-27,
6222144402,6,13,0,-59,68,61,11,5,
6222166835,22,19,-61,-33,55,-50,-15,-4,
6222166835,-32,-40,-128,-70,-32,27,-6,-5,
6222174581,-28,-117,-15,-48,-54,-17,-26,-10,
6222174581,14,50,127,127,-71,11,-3,-4,
6222189384,9,-67,46,28,-128,68,-38,-21,
6222189384,5,63,-89,33,86,-79,-57,5,
6222204440,-18,-56,-128,-128,-51,21,1,-9,
6222204440,-30,-100,106,-109,-66,0,-28,-26,
6222226940,22,-8,-108,-111,1,8,24,14,
6222226940,-50,-114,-95,-91,-128,-32,-7,-21,
6222241861,48,36,-48,-61,-57,-34,-53,13,
6222241861,-52,-68,26,87,11,15,52,3,
6222256866,-22,-29,65,-8,54,-34,-25,-29,
6222256866,-10,-47,-74,-20,-99,33,-12,-1,
6222272037,15,56,-71,-6,75,3,23,25,
6222272037,29,49,90,-54,-45,-44,-87,13,
6222286984,3,34,-68,32,-60,-102,-23,2,
6222286984,21,10,-128,-68,8,69,50,4,
6222302086,-17,-53,-57,-51,-93,-59,-44,7,
6222302086,-3,-5,-45,-51,93,65,-38,-5,
6222309541,-24,-54,38,116,-62,-29,26,-36,
6222309541,-2,32,-6,9,-69,3,-20,11,
6222317017,11,13,-29,-97,63,-35,-35,-2,
6222317017,25,-5,-88,-65,-80,-35,51,3,
6222331881,-28,-33,17,69,88,28,18,-20,
6222331881,-19,-32,22,-11,-71,-19,-12,25,
6222339392,10,42,11,-30,61,30,31,13,
6222339392,17,-65,-95,-115,78,48,-1,5,
6222354616,9,3,62,70,-26,-34,-13,-3,
6222354616,-16,11,-104,-114,-36,-25,7,-6,
6222362041,-10,-3,66,-2,68,45,-26,-18,
6222362041,1,41,103,127,-11,-18,62,18,
6222376990,-57,-67,-128,-128,-5,-43,4,-16,
6222376990,-29,-126,27,-4,6,44,-65,-21,
6222391974,10,127,116,112,48,12,2,11,
6222391974,24,21,-127,-31,-50,-14,35,26,
6222399407,-8,-34,-74,-89,-66,34,22,-8,
6222399407,-1,15,-29,127,57,-46,-18,-12,
6222414401,13,-128,-121,-128,-128,-1,4,14,
6222414401,-31,45,85,20,92,-23,-1,-12,
6222422054,3,58,104,127,52,116,-5,5,
6222422054,-1,1,-113,-111,-2,-104,20,-9,
6222436869,30,-57,-48,-59,-50,13,7,47,
6222436869,-18,1,2,-61,-24,33,1,-2,
6222452219,12,34,-18,15,-46,-13,57,-1,
6222452219,-9,-63,-68,-61,92,-6,-12,16,
6222459508,2,68,127,127,4,14,-47,-10,
6222459508,42,-11,-39,-97,6,15,31,19,
6222474419,-37,66,-34,2,-27,-23,-16,-21,
6222474419,-16,-96,-47,-68,-82,8,-9,6,
6222481978,-2,61,71,99,75,13,-9,-19,
6222481978,23,81,-31,39,1,79,33,15,
6222497034,8,40,-128,-9,-32,-29,4,2,
6222497034,-24,17,70,78,122,5,15,-23,
6222512061,12,-35,-123,-128,-57,28,15,17,
6222512061,-36,-128,-106,-128,-43,12,20,-29,
6222519503,2,35,122,62,-60,-38,-26,-26,
6222519503,-2,98,-51,-31,5,-6,-29,-1,
6222534545,17,-67,-65,-58,-11,16,2,5,
6222534545,2,18,64,43,-83,-25,10,1,
6222541937,-16,-6,-12,-50,38,59,34,29,
6222541937,-5,-47,58,16,-114,-28,-9,-8,
6222557114,-14,-7,-7,-98,-54,-25,-53,-11,
6222557114,-12,-35,4,-8,-106,11,2,-14,
6222571970,-4,-28,26,63,29,-2,-28,-18,
6222571970,8,-27,-49,-6,127,53,11,2,
6222579492,10,29,34,48,-13,21,17,18,
6222579492,13,48,56,94,-25,-65,59,-7,
6222602014,22,76,73,-5,52,1,-93,21,
6222602014,5,6,-83,-69,-43,-40,27,6,
6222609508,-23,-72,16,-23,40,-15,-25,-27,
6222609508,-8,83,107,113,83,17,39,7,
6222624571,2,-94,-128,-128,-18,-68,-25,4,
6222624571,-25,-49,49,24,-33,-6,-10,-16,
6222639391,-19,-18,82,-23,-52,-28,-8,-36,
6222639391,32,81,107,95,-34,59,-10,27,
6222646930,9,-23,-52,-92,-23,1,66,-10,
6222646930,-15,-11,-26,64,-12,-25,-60,-4,
6222654589,-9,-19,44,38,-67,46,26,5,
6222654589,-8,43,20,20,57,-64,-7,-9,
6222662007,6,-64,-41,-6,1,-36,-10,0,
6222662007,6,96,26,-29,44,61,14,4,
6222677045,8,16,99,97,31,-31,-22,1,
6222677045,-24,-33,-113,-46,14,-19,27,2,
6222691926,-8,-7,-43,-92,14,27,-1,-7,
6222691926,11,20,69,127,127,-42,-34,-3,
6222699346,-18,-39,-66,-128,-44,6,-33,-3,
6222699346,-5,-28,-65,-94,55,-42,-36,-13,
6222714390,20,69,127,127,65,63,52,19,
6222714390,-11,-55,-128,-128,-85,47,-16,-31,
6222722098,10,-2,111,82,-61,-27,-21,13,
6222722098,6,69,112,127,-14,19,-14,-10,
6222737032,13,70,61,-27,3,1,18,8,
6222737032,5,21,5,18,-2,25,-13,9,
6222751852,2,-68,-12,-72,-13,-61,19,0,
6222751852,-17,67,127,114,-44,48,-31,-6,
6222759587,24,80,-65,31,4,32,60,10,
6222759587,-31,-105,-85,-104,-73,-65,-4,-13,
6222774594,7,38,26,95,-5,13,-8,-4,
6222774594,-5,-36,76,-29,58,-18,-18,-30,
6222782050,-17,-52,-43,-36,87,25,13,-10,
6222782050,27,-8,-15,-5,-36,44,28,25,
6222796977,-4,72,121,127,-32,-19,-33,-9,
6222796977,13,-12,-107,-67,-3,5,19,-3,
6222811966,0,-18,70,38,-48,-12,-54,-21,
6222811966,10,63,-98,-78,-9,46,41,49,
6222819562,-24,-32,26,39,10,-20,-7,-25,
6222819562,26,28,81,8,31,-22,-71,4,
6222834560,4,-4,19,14,-4,-10,-23,-25,
6222834560,-10,67,-54,-27,17,-5,-3,12,
6222842067,-17,-63,-110,-74,-8,-10,6,2,
6222842067,-12,-46,-78,-59,-38,27,19,6,
6222857089,9,19,29,69,66,12,-9,-10,
6222857089,11,-5,-30,1,10,-7,-5,14,
6222871839,-35,-40,-128,-128,13,18,28,1,
6222871839,7,-50,-10,1,-13,4,33,7,
6222879404,12,110,121,114,-5,1,-64,8,
6222879404,29,44,7,68,46,13,25,7,
6222902131,-5,-40,-103,-97,-51,8,23,-13,
6222902131,-39,-39,-58,-62,-75,-63,-12,-31,
6222909450,-6,-75,-114,17,-17,-12,-11,7,
6222909450,11,75,117,87,94,11,-16,-5,
6222924520,4,-6,-23,-35,59,51,30,11,
6222924520,-11,-2,108,-19,-128,14,42,9,
6222939576,35,56,68,127,64,-20,-19,16,
6222939576,5,-22,-91,-14,116,34,54,-3,
6222946955,-11,15,91,-33,-77,36,-14,-19,
6222946955,-6,2,31,37,20,-36,-47,-10,
6222954534,11,-27,-92,-124,-95,18,-4,11,
6222954534,-6,74,127,127,27,5,33,10,
6222962059,-2,-15,-128,-128,-33,9,-5,7,
6222962059,-14,-7,72,32,1,34,-8,-14,
6222977024,13,50,127,65,-3,15,14,-10,
6222977024,-5,-17,-128,-128,68,16,33,18,
6222991907,-6,-61,-34,54,23,-60,-15,-7,
6222991907,3,69,108,19,73,121,52,-17,
6223006914,19,19,0,54,7,-63,9,19,
6223006914,-4,-39,-105,-52,34,70,-10,-9,
6223022060,-8,-33,47,-60,12,24,6,6,
6223022060,11,21,30,67,-63,-10,-25,-19,
6223029484,-18,-87,-117,-120,-69,6,0,-2,
6223029484,-12,16,111,120,9,-46,-8,-12,
6223044564,8,-1,-67,-82,-110,-41,-2,-7,
6223044564,-37,-74,-128,-128,41,-23,-51,-25,
6223059590,21,-13,80,127,31,-5,-11,12,
6223059590,20,29,-9,-51,22,-12,27,43,
