timestamp,C1,C2,C3,C4,C5,C6,C7,C8,
23858311826,-99,-109,-111,-111,-109,-24,88,-68,
23858311826,18,86,98,97,61,33,4,2,
23858319527,72,102,-65,-122,-118,-13,-60,27,
23858319527,-75,-81,-2,95,-66,-35,50,-48,
23858334357,30,57,48,59,113,0,-45,21,
23858334357,5,23,25,24,-67,-11,1,8,
23858341892,-16,21,-98,-79,91,24,21,-11,
23858341892,30,-40,44,60,25,16,11,20,
23858358158,47,81,107,-11,93,34,-58,29,
23858358158,-23,-42,8,52,127,18,-10,-15,
23858372000,16,39,41,44,-16,-12,-13,-2,
23858372000,35,-55,91,37,-25,14,-43,39,
23858379774,-17,-38,-43,-54,127,34,-26,-16,
23858379774,40,94,36,29,39,38,-4,16,
23858387067,-55,-109,-50,-73,-119,-41,55,-32,
23858387067,-12,18,9,-72,36,-19,17,-13,
23858394594,8,49,-61,73,-82,6,-7,17,
23858394594,-31,-92,-79,51,-50,-10,-14,1,
23858401793,55,127,57,-80,45,18,-38,16,
23858401793,4,-50,3,9,32,-2,4,-1,
23858418467,-38,-102,60,55,32,-15,60,-25,
23858418467,54,127,19,-57,127,40,-77,29,
23858424391,-16,-68,-128,-80,-118,-17,30,-2,
23858424391,15,34,-9,-4,64,1,7,-6,
23858432029,75,93,127,116,114,66,-100,51,
23858432029,-91,-88,-68,-111,-119,-100,62,-76,
23858439494,-41,-37,29,127,17,0,84,-37,
23858439494,40,81,17,20,27,15,-55,23,
23858454259,61,71,78,-54,-99,4,-23,12,
23858454259,-12,-35,-13,58,-58,7,-6,14,
23858465079,6,38,-92,-116,84,49,-57,8,
23858465079,2,38,34,85,-128,-29,16,2,
23858470626,-69,-92,-79,-77,13,-40,33,-20,
23858470626,58,85,118,-46,72,13,-33,25,
23858476938,32,37,73,111,8,10,-56,27,
23858476938,-64,-89,-118,-68,-43,-15,55,-35,
23858484413,-22,-15,-33,127,-86,-42,21,-32,
23858484413,50,71,41,-66,99,54,-36,31,
23858491790,-61,-101,-16,40,65,-50,20,-26,
23858491790,14,20,-11,-25,-68,23,-14,14,
23858507051,-39,-26,7,-23,67,35,16,-4,
23858507051,-1,-8,-111,-54,-123,-35,17,-13,
23858514521,25,-1,127,76,15,-5,-14,1,
23858514521,24,45,-17,30,-46,-6,0,-4,
23858537126,-60,-128,-85,-78,-23,-36,39,-18,
23858537126,68,127,127,27,9,55,-74,39,
23858544529,19,-71,11,39,85,-3,-22,28,
23858544529,-87,-128,-128,-128,-128,-46,46,-44,
23858551827,25,78,127,127,24,22,4,-2,
23858551827,22,74,76,-45,30,19,-43,9,
23858559473,-59,-120,-128,-124,-31,0,24,-23,
23858559473,38,119,12,115,61,-3,-6,15,
23858574765,0,-40,-26,-28,85,-10,-3,5,
23858574765,-40,-53,-84,-64,-14,-31,23,-20,
23858604327,8,46,60,-42,65,18,-34,9,
23858604327,57,107,76,98,0,14,-59,23,
23858612050,21,9,-101,37,116,35,-31,17,
23858612050,-12,-12,-53,-52,-112,-10,15,-3,
23858619300,13,36,-1,-25,89,30,-21,9,
23858619300,-29,-87,25,53,17,-17,38,-5,
23858634266,-63,-128,-128,-91,-128,-55,74,-40,
23858634266,29,116,9,-1,48,6,16,-17,
23858649454,-34,-55,-70,-50,-20,1,48,-27,
23858649454,-15,37,55,54,-84,-5,-19,-1,
23858664407,-44,-128,-61,55,-64,-38,29,-25,
23858664407,2,17,60,-64,-3,4,-12,8,
23858679402,53,127,118,127,105,43,-67,30,
23858679402,17,1,-128,-128,-92,-3,27,4,
23858694201,-55,-47,54,89,-44,-15,28,-37,
23858694201,14,13,-72,-87,18,-9,23,2,
23858701781,-7,20,-27,8,-128,-24,11,0,
23858701781,42,112,68,-82,97,23,-63,28,
23858717140,3,-33,-74,-32,66,38,-44,12,
23858717140,-68,-128,32,69,-93,-49,79,-52,
23858731997,-62,-41,-80,-64,61,-16,16,-12,
23858731997,-30,41,21,-97,79,-13,-9,-15,
23858746704,47,123,127,34,-18,5,0,-8,
23858746704,55,66,-54,-44,79,33,-71,37,
23858754351,-45,-83,-76,8,73,-9,5,-3,
23858754351,-25,12,-70,-93,-70,-49,43,-34,
23858769237,-24,2,-11,-18,66,-5,39,-17,
23858769237,0,23,100,127,41,-1,-8,-3,
23858784307,36,99,-128,-128,-16,26,-4,26,
23858784307,-43,-72,-23,98,-128,-69,62,-44,
23858791918,-35,-40,-10,-58,127,-25,36,-29,
23858791918,-17,9,127,127,-21,-28,-14,-9,
23858806781,106,127,-43,-128,-3,46,-78,48,
23858806781,-34,-71,-93,-6,5,27,2,8,
23858821711,-94,-128,-128,-83,-108,-54,68,-47,
23858821711,55,91,90,61,102,82,-83,32,
23858836791,3,2,-43,-29,-117,-55,52,-15,
23858836791,-66,-71,-80,-13,-83,-46,71,-42,
23858851719,-53,-102,-46,-77,-64,-7,55,-34,
23858851719,46,91,85,61,13,25,-48,23,
23858859304,49,67,-105,-78,-103,11,-35,22,
23858859304,-31,-75,93,100,17,-9,34,-3,
23858874444,-34,-11,-97,-89,121,33,7,-9,
23858874444,42,79,116,95,-122,-2,35,9,
23858911936,-51,-93,71,-34,-124,-51,15,-18,
23858911936,-35,-43,8,25,104,15,10,-12,
23858926787,-59,-98,72,127,-114,-5,30,-34,
23858926787,117,127,75,-16,107,30,-100,40,
23858934288,-82,-128,-76,-54,-59,-30,77,-35,
23858934288,-54,33,-33,-128,-95,-52,34,-35,
23858956776,69,114,70,117,85,34,-78,57,
23858956776,-6,-56,-85,-1,10,10,-7,-2,
23858971808,-32,-57,36,79,-26,-30,52,-27,
23858971808,21,49,49,52,127,72,-93,35,
23858979379,17,47,127,127,127,22,-76,5,
23858979379,56,103,37,-118,-109,12,-37,30,
23858986866,-45,-128,-71,-21,42,-24,76,-24,
23858986866,-1,54,80,76,17,-26,-33,5,
23859001854,3,-29,-39,-91,7,37,-10,13,
23859001854,2,72,46,-23,-85,-22,50,-22,
23859009451,82,127,-17,-73,32,31,-81,27,
23859009451,-46,-78,-103,-15,0,-36,18,-11,
23859016918,-73,-44,-33,58,-45,-17,72,-47,
23859016918,54,52,102,-64,127,63,-109,47,
23859024430,15,71,-128,-76,78,-6,-11,4,
23859024430,-59,-128,20,115,47,31,7,-14,
23859031983,11,37,121,-31,-76,-18,-4,-5,
23859031983,26,49,-46,39,-4,-10,-21,10,
23859046847,41,-1,121,99,32,39,-42,42,
23859046847,48,127,63,-81,-16,-3,-21,11,
23859054319,-88,-128,-127,65,-96,-35,47,-37,
23859054319,-39,-78,53,45,80,-24,42,-13,
23859069219,35,102,-20,0,62,16,-75,18,
23859069219,-25,-50,-128,-28,-42,-25,43,-21,
23859084250,-18,-74,-13,-41,56,-8,26,-13,
23859084250,82,66,69,102,111,35,-76,47,
23859092003,11,-60,-52,27,24,-25,-51,9,
23859092003,-43,-30,5,-47,-53,-26,38,-29,
23859106942,-25,-93,-8,60,-68,-19,43,-26,
23859106942,-15,31,20,81,27,6,-25,-8,
23859114375,37,106,28,-17,2,18,44,18,
23859114375,5,-31,-54,-32,-48,28,-24,11,
23859136987,15,66,54,42,-29,3,-55,8,
23859136987,-66,-128,-116,-69,23,-59,37,-50,
23859151818,24,4,-76,-12,-44,-14,-20,33,
23859151818,-89,-72,-79,-50,-7,-25,59,-27,
23859159285,-29,69,46,51,16,-11,49,-35,
23859159285,18,67,-78,-25,-52,-2,-4,0,
23859174480,16,-13,-74,-74,84,0,-11,-10,
23859174480,44,87,77,127,18,25,-22,17,
23859189419,37,127,6,-38,-70,10,-23,24,
23859189419,-16,29,-36,-46,-116,-27,15,-14,
23859204262,-69,-92,-78,-128,-5,-44,68,-50,
23859204262,55,45,33,33,-38,9,-27,9,
23859211968,63,79,127,77,105,-4,-53,28,
23859211968,-42,-39,-25,-128,-43,-20,-20,0,
23859226814,-59,-14,70,121,-2,-2,70,-37,
23859226814,17,79,-29,9,71,28,-18,20,
23859234308,37,86,42,23,-54,-10,5,-1,
23859234308,75,125,-62,-27,37,28,-74,32,
23859249234,-10,-65,-44,-112,-19,-2,9,-5,
23859249234,-61,-82,48,114,-83,-29,60,-45,
23859264440,-5,37,42,32,-3,-24,12,-17,
23859264440,28,28,66,-17,125,0,-36,28,
23859271864,-55,-33,-61,-80,11,-1,3,-20,
23859271864,21,-6,91,84,-39,13,32,-7,
23859286814,46,61,-19,47,48,16,-67,19,
23859286814,44,16,37,-50,-41,-1,-3,26,
23859294403,-28,-81,-64,23,36,-14,1,-21,
23859294403,35,18,121,32,127,16,-38,30,
23859309488,-29,-44,-88,-80,-110,-28,42,-12,
23859309488,-52,19,41,42,56,25,-2,-14,
23859316920,22,116,-39,-75,-128,-24,-30,6,
23859316920,-31,-51,-41,19,-54,-14,57,-39,
23859324216,1,60,-92,-30,-7,13,19,-4,
23859324216,15,67,58,-74,-113,-33,3,4,
23859331984,39,53,62,127,26,31,-58,28,
23859331984,-20,-54,-87,-128,36,-3,2,-9,
23859346954,-15,-109,55,127,39,-5,20,3,
23859346954,-16,-23,-128,-97,-57,8,9,6,
23859354421,11,20,126,51,127,38,-19,1,
23859354421,2,60,-53,53,-128,-44,-6,-6,
23859369193,0,19,40,62,47,-14,-26,-5,
23859369193,3,-56,-128,-99,-43,19,3,13,
23859384263,-40,-95,70,52,-100,-77,49,-45,
23859384263,58,127,29,127,127,51,-18,17,
23859391964,11,-3,-61,-80,-51,-16,-26,14,
23859391964,-54,-89,52,-63,-14,9,3,-34,
23859399490,8,29,-123,28,36,9,21,3,
23859399490,-27,-89,-71,-82,-95,-43,-28,1,
23859414379,26,84,77,-24,9,45,-2,33,
23859414379,-27,-19,-105,64,-116,-58,67,-46,
23859422046,-18,-96,57,82,47,8,-35,3,
23859422046,40,102,17,-128,-53,-3,-16,3,
23859429365,13,14,-12,-49,-1,36,-55,23,
23859429365,-8,-41,-8,-32,127,-7,69,-27,
23859436817,-9,-50,30,49,-59,-6,34,-7,
23859436817,4,48,-41,78,103,-8,-20,5,
23859444410,-33,-106,79,127,-56,1,3,-18,
23859444410,-1,-39,121,127,122,29,-80,44,
23859451747,-26,35,-90,-128,-100,-79,18,-48,
23859451747,50,104,83,59,-23,47,35,14,
23859466637,3,30,-70,-99,57,-2,-8,-8,
23859466637,-46,-95,-19,127,-77,-11,9,-9,
23859474342,-15,-16,30,-51,66,19,-22,15,
23859474342,48,91,94,51,68,85,-81,39,
23859489501,31,127,19,-7,-115,-88,87,-45,
23859489501,-39,-84,-128,-95,-58,-25,44,-13,
23859496925,-18,-67,20,52,35,12,-12,7,
23859496925,-6,-55,-37,-105,-62,-29,-39,8,
23859504201,3,18,-40,-3,65,25,34,-15,
23859504201,51,113,69,64,72,16,-41,22,
23859519412,-28,-68,-118,25,-39,-10,16,-9,
23859519412,-22,-30,-9,-76,24,22,23,-9,
23859534354,6,5,19,-16,58,7,-33,17,
23859534354,54,76,-1,45,-119,-22,-4,3,
23859541715,-31,-57,-45,-22,-56,-6,5,-4,
23859541715,-37,-24,49,8,28,-17,17,-17,
23859556814,18,36,15,-39,46,13,-2,12,
23859556814,23,45,55,-46,-71,3,-15,11,
23859564280,39,60,27,53,45,22,-50,15,
23859564280,-52,-128,-128,-2,73,-1,43,-12,
23859571751,-63,-82,26,66,-85,-46,53,-41,
23859571751,75,127,40,28,-24,34,-81,39,
23859586761,39,77,32,-39,71,58,-86,42,
23859586761,-46,-128,-83,73,-63,-62,35,-14,
23859594241,-42,-55,-50,-73,92,5,61,-29,
23859594241,21,56,-71,-30,62,-12,-57,12,
23859609284,-4,23,54,58,-112,17,26,-5,
23859609284,43,111,21,-61,81,67,-24,14,
23859617017,37,-42,-35,-38,-114,-7,3,23,
23859617017,20,47,101,38,18,-5,-36,5,
23859624274,-19,-39,-11,-9,58,-7,-13,-2,
23859624274,-78,-82,-97,70,-51,-46,26,-39,
23859632028,66,127,65,44,127,39,-58,55,
23859632028,3,21,-6,15,-69,-15,49,-20,
23859646820,-44,-94,-48,-53,-128,-46,18,-36,
23859646820,-7,-6,82,-23,117,28,8,2,
23859654290,-20,-39,-64,79,-71,14,-40,5,
23859654290,24,-38,-82,-87,51,17,35,0,
23859669170,38,81,14,70,-108,-7,-19,15,
23859669170,34,31,73,60,103,7,-8,11,
23859684278,-50,-27,23,-103,-42,-41,39,-33,
23859684278,-41,-34,-94,-27,-91,-18,-4,-7,
23859692002,-8,19,24,61,32,8,-7,0,
23859692002,46,47,-55,18,93,36,-75,45,
23859699424,73,127,127,-40,-38,8,-18,6,
23859699424,-13,31,-4,5,51,-1,19,-21,
23859714206,-77,-128,-76,7,-92,-17,72,-24,
23859714206,-22,-37,25,-91,3,6,-17,-4,
23859721957,44,92,-44,46,116,26,-31,31,
23859721957,39,82,70,66,-66,-3,-36,6,
23859736686,-38,-38,124,43,124,-27,-27,-32,
23859736686,-17,-87,-86,-101,-108,-20,38,7,
23859744426,57,4,-55,-17,53,24,24,27,
23859744426,-71,-42,-128,61,25,-1,4,-45,
23859751962,-14,23,-16,-104,-103,-48,40,-9,
23859751962,-28,-11,11,31,-54,-14,8,-18,
23859766769,73,127,57,-5,-15,15,-78,39,
23859766769,27,72,-47,-42,21,8,10,15,
23859774228,-50,-119,1,5,120,5,-2,-6,
23859774228,-1,46,9,88,17,-9,-5,-18,
23859789456,-4,-28,5,-64,-57,15,20,5,
23859789456,19,76,-3,-48,-39,10,-32,-8,
23859804372,43,83,30,114,111,25,-7,25,
23859804372,-45,-98,21,-116,92,3,9,-13,
23859811873,0,70,-110,-10,-83,-52,10,-11,
23859811873,-55,-105,7,69,61,-33,53,-42,
23859826812,-14,-57,39,69,55,10,-49,5,
23859826812,-11,-3,-101,-117,127,18,39,-9,
23859842006,7,-25,14,-27,-40,0,20,9,
23859842006,71,127,62,-56,-71,17,-59,32,
23859849458,-7,14,-6,-82,-67,-28,6,-13,
23859849458,-86,-116,-69,117,-88,-51,28,-37,
23859864406,10,67,113,80,104,43,-54,8,
23859864406,38,92,-8,-30,-89,0,22,-5,
23859872005,76,51,70,127,112,33,-72,42,
23859872005,-7,11,-41,-104,-85,-48,-15,12,
23859879232,-53,-16,-93,70,-124,-31,56,-62,
23859879232,37,80,44,52,105,38,-44,30,
23859886969,-28,28,-52,17,-128,-36,37,-33,
23859886969,16,-68,123,-8,-11,41,-10,10,
23859894296,36,-56,-31,-4,-7,4,-14,16,
23859894296,-18,-92,-125,-79,36,8,12,7,
23859909289,12,40,82,88,9,7,-16,1,
23859909289,-18,59,-91,-103,-98,-29,12,-16,
23859916995,11,38,54,37,-112,-7,46,-17,
23859916995,16,-99,-53,101,64,10,-26,27,
23859924400,-14,-108,-63,-101,30,11,-41,20,
23859924400,-14,-112,-85,47,85,7,4,16,
23859939457,-28,-34,99,23,-53,-14,-1,-16,
23859939457,69,127,123,-102,56,26,-37,11,
23859946946,1,-99,-68,6,-12,-15,59,2,
23859946946,-99,-115,-29,-22,54,-18,47,-43,
23859961759,10,97,72,8,-51,-14,-30,0,
23859961759,53,63,-19,-33,-34,19,-67,38,
23859969243,-64,-102,-53,-97,-115,-36,93,-46,
23859969243,10,22,-63,-21,86,25,-11,4,
23859984316,-19,-51,-76,-42,-51,-48,31,-11,
23859984316,-2,-11,127,47,106,-9,-21,-7,
23859999441,37,91,-114,-119,-16,17,-62,34,
23859999441,-47,-127,-11,43,-41,-43,105,-41,
23860007004,57,127,-20,-3,127,88,-101,40,
23860007004,-3,-24,32,19,-128,-44,70,-14,
23860021941,-75,-62,-66,0,19,-15,3,-32,
23860021941,-13,39,41,15,44,-21,-30,4,
23860029383,13,49,-107,-43,-22,0,-30,13,
23860029383,35,56,127,91,95,52,23,5,
23860044402,14,71,127,-71,-94,-22,10,-21,
23860044402,-35,-17,20,-25,6,-53,9,-22,
23860059278,13,-10,-55,-107,-120,20,-7,16,
23860059278,-69,-128,-128,-24,-35,-25,71,-57,
23860066895,15,15,55,28,100,24,-22,10,
23860066895,47,81,50,-64,-85,31,-20,33,
23860081941,-3,-72,0,70,23,-24,32,-16,
23860081941,-14,-19,-30,68,-49,6,-37,-1,
23860089404,48,108,34,-76,9,14,-20,20,
23860089404,-29,-128,-29,93,28,-4,-11,0,
23860104409,39,69,72,-4,54,-22,-72,36,
23860104409,26,103,35,-103,-128,-10,44,-17,
23860111663,-81,-128,10,33,80,-10,32,-40,
23860111663,-3,98,-6,48,104,25,-26,13,
23860126799,20,0,-46,26,-9,13,71,18,
23860126799,-23,-28,-54,-46,65,-8,-24,-21,
23860142032,67,102,6,127,76,96,-106,71,
23860142032,-3,-39,72,35,-34,-57,22,6,
23860149426,-55,-116,-128,-102,-128,-30,26,-27,
23860149426,34,119,105,127,3,13,-39,-23,
23860164348,19,89,127,125,79,8,-67,25,
23860164348,43,51,-128,-123,-128,-46,-52,29,
23860179398,-79,-19,-24,-16,7,-46,106,-83,
23860179398,12,57,13,12,127,30,-8,-3,
23860186934,-13,-47,38,111,89,22,-23,10,
23860186934,11,73,-86,-128,74,17,-27,12,
23860201708,42,-7,41,78,-24,-23,-8,15,
23860201708,-22,-76,-53,-128,-128,-43,26,-6,
23860209494,-21,-13,-128,82,-79,-7,25,-37,
23860209494,19,104,34,37,64,22,39,-7,
23860224204,-28,-5,23,68,-80,-8,26,-23,
23860224204,-31,-128,-24,22,13,19,25,-2,
23860239254,44,127,72,121,-105,15,-36,14,
23860239254,40,-54,-43,-92,-27,-18,-34,31,
23860246987,-82,-48,-75,81,84,-33,9,-46,
23860246987,-22,47,73,-97,-70,-8,49,-24,
23860269476,58,94,87,98,127,49,-53,32,
23860269476,61,13,103,104,127,22,-68,48,
23860276902,-32,-18,-111,-128,-128,-24,54,-31,
23860276902,-61,-128,55,123,65,0,21,-10,
23860291805,-13,-48,-88,-120,-57,-63,42,-16,
23860291805,-17,-81,-41,48,92,54,14,-3,
23860306734,13,42,25,-50,-128,-14,12,2,
23860306734,2,5,20,80,88,9,-22,-10,
23860314451,83,127,127,73,107,54,-92,48,
23860314451,40,28,-103,-57,-128,-25,-3,14,
23860329260,96,73,127,127,127,99,-123,66,
23860329260,-59,-25,-89,-128,-128,-108,64,-59,
23860344215,-55,-101,43,76,88,10,69,-54,
23860344215,-49,15,71,59,94,-11,-12,-19,
23860351921,66,127,-77,-128,-17,10,-87,50,
23860351921,22,-13,127,127,-55,-5,22,-4,
23860366796,-40,-100,96,31,-85,-27,51,-22,
23860366796,95,127,22,93,70,95,-123,70,
23860381929,-38,-103,-90,-112,-124,-90,62,-39,
23860381929,-59,-83,-107,-52,-36,13,33,-33,
23860389405,-18,63,59,49,-27,-19,-17,1,
23860389405,-18,32,-96,-78,42,-45,14,-9,
23860404361,89,113,25,60,127,92,-24,43,
23860404361,47,77,43,127,125,73,-58,35,
23860411793,-44,-31,-79,98,-68,-50,32,-22,
23860411793,-53,-98,34,-20,-108,-30,-18,-6,
23860426975,-72,-128,-75,102,-42,-39,122,-54,
23860426975,-4,15,0,-101,6,24,5,13,
23860442086,-2,64,-92,-81,-128,-21,0,-4,
23860442086,-14,-107,127,127,127,-5,-12,-14,
23860449253,76,127,-92,-18,-101,1,-58,19,
23860449253,43,1,51,-74,-35,8,-18,17,
23860464362,3,-127,-104,-84,-18,0,-26,9,
23860464362,-16,-24,-18,21,-110,-27,78,-27,
23860471819,-82,-124,-82,-67,5,-4,19,-26,
23860471819,-33,93,-5,77,68,-2,16,-31,
23860486960,-94,-117,-105,-5,3,-78,115,-73,
23860486960,36,81,83,127,98,36,-76,26,
23860501876,-3,-13,-89,-128,-107,-35,40,-1,
23860501876,52,115,81,107,-84,40,40,1,
23860509411,58,53,-52,14,86,48,-90,41,
23860509411,-113,-119,-124,-49,-128,-58,72,-30,
23860524439,-41,62,95,110,0,-4,28,-31,
23860524439,2,61,-125,-112,62,8,-45,24,
23860531950,42,127,21,-128,40,13,21,0,
23860531950,97,127,115,127,16,15,-43,18,
23860547011,14,-10,80,46,20,30,-53,27,
23860547011,41,67,-25,-41,63,42,-68,25,
23860562029,50,87,106,89,-74,7,-10,0,
23860562029,-14,-31,-33,26,10,-28,4,-15,
23860569304,-56,-93,-92,-128,-97,-20,71,-12,
23860569304,23,56,66,95,-112,13,6,5,
23860584437,14,-8,27,-79,-74,-1,-32,22,
23860584437,-37,-14,-81,-20,-50,-3,8,-13,
23860592030,-15,12,127,54,-27,5,-10,-11,
23860592030,2,28,5,111,65,7,-43,15,
23860614412,-20,-77,119,19,-49,6,15,-8,
23860614412,-50,-117,-85,-103,-94,-36,50,-47,
23860636735,-43,-90,93,43,-89,-18,-8,-5,
23860636735,33,119,-56,36,-11,28,-44,25,
23860644419,-31,-59,-81,37,-52,-37,68,-41,
23860644419,-26,-49,-50,-31,116,4,-2,-10,
23860659259,127,127,127,127,127,82,-128,85,
23860659259,32,39,-128,-128,59,3,-35,35,
23860674275,29,92,-66,-128,-23,-27,-65,19,
23860674275,-27,-29,97,72,-62,-50,69,-33,
23860689385,55,66,96,-40,88,41,51,0,
23860689385,-28,-67,-105,32,-9,-27,-16,0,
23860711905,18,68,-23,-125,92,-29,-13,10,
23860711905,13,24,34,30,-100,26,32,2,
23860719281,-29,-93,-128,-3,-97,-25,18,-16,
23860719281,13,-37,12,-65,-18,24,-8,11,
23860734372,-16,20,92,64,45,5,-14,-5,
23860734372,43,76,52,-108,-50,1,-39,19,
23860749422,32,48,2,71,38,22,16,-19,
23860749422,-26,-35,-24,-12,-52,-22,24,-20,
23860756839,-49,-77,1,38,-56,-27,56,-9,
23860756839,0,19,-123,2,-128,9,-40,15,
23860771774,2,-61,-80,-106,7,1,62,-6,
23860771774,-29,-65,-18,103,7,-1,-5,-10,
23860786931,-32,-72,-28,15,-26,-10,-54,-5,
23860786931,56,127,-32,-63,-56,-15,69,-4,
23860801852,-50,-128,-86,-45,-128,-23,10,-18,
23860801852,34,74,48,16,-11,4,-42,14,
23860824448,19,72,-17,-19,57,12,-42,23,
23860824448,-42,-64,44,40,24,-8,19,-20,
23860839410,9,18,0,17,-4,-1,11,4,
23860839410,-23,-128,32,34,-8,-22,11,-3,
23860846940,32,104,73,110,29,43,-50,22,
23860846940,-26,-12,79,55,109,-13,-28,-3,
23860876928,13,114,62,-59,-50,-5,0,-30,
23860876928,26,61,38,32,66,26,11,11,
23860891991,24,57,-71,-6,40,-1,-16,12,
23860891991,-8,-73,95,29,-86,24,-3,3,
23860906700,-28,-8,46,26,13,-7,12,-4,
23860906700,49,78,92,75,127,19,-35,25,
23860921804,-10,-65,-34,-95,-68,-33,43,-9,
23860921804,-73,-98,-21,75,-17,-28,56,-39,
23860929338,-37,-84,-50,87,-14,-22,31,-39,
23860929338,25,113,-101,-128,3,4,-9,4,
23860951787,-43,-128,58,127,-23,9,48,-8,
23860951787,21,-45,-48,-103,-4,17,-15,15,
23860959322,63,103,78,36,-6,48,-76,34,
23860959322,-13,-27,-62,-49,-128,-64,33,-28,
23860974219,15,24,11,36,91,74,-3,12,
23860974219,-54,-58,-82,-42,-59,-37,2,-17,
23860989441,29,127,127,124,80,41,-34,10,
23860989441,-8,11,77,-68,44,-22,-16,1,
23860997038,-31,-82,-67,-55,-99,-52,24,-11,
23860997038,12,24,68,0,127,10,-3,1,
23861011812,9,15,-43,-15,8,20,1,-7,
23861011812,-20,-118,-20,-3,-128,-18,32,-9,
23861026982,16,18,78,-2,104,7,-50,17,
23861026982,25,114,-128,-107,19,-2,-15,-3,
23861041849,-24,-60,-32,35,-115,-36,37,-12,
23861041849,-15,-11,-49,79,-4,29,-34,12,
23861049460,-23,20,20,-91,30,-33,41,-17,
23861049460,-5,20,-43,82,-28,34,21,-17,
23861064435,65,65,127,66,17,14,-40,25,
23861064435,-40,-84,-9,-97,-11,-26,13,-13,
