weight,trial,C1,C2,C3,C4,C5,C6,C7,C8
1,0,2.6110858631807425,2.4672686845538343,4.107077087042636,8.820688912769318,5.60255318641574,2.232145771953812,1.4702968318708525,2.039849136290875
1,0,2.5220332176208897,2.528566639404792,3.7457548877102953,8.278152561411497,5.815342892215864,2.1995100256791016,1.484020900185273,2.0026112878786853
1,0,2.421057015210228,2.3507535141804627,3.474012112746742,8.893382045844163,5.4751181826085045,2.333737015042524,1.5865847866233016,1.8175328809330278
1,0,2.468076533367928,2.2816291510140783,3.412282598187728,8.751836589332944,6.302695287378737,2.3201403713279984,1.4955296651210557,1.9400971970318717
1,0,2.673830093973178,2.3303001049278587,3.5105171395959553,7.928541434389727,5.883790169271945,2.4639969805188406,1.3049531737166828,2.066549673934213
1,0,2.6618342768954615,2.43030672907094,3.720048919958713,8.133200117171178,6.34702229750448,2.1461645161280676,1.4313662136720766,2.0683494510328697
1,0,2.629606210356519,2.399066949169859,3.7523080579646058,8.086638360455062,6.872701470501927,2.246359680203078,1.4796397269600976,1.9192973508124684
1,0,2.4890038396293637,2.1377279309823285,3.9986062476812,7.800111438400472,6.218146965586756,2.2559304394990978,1.6378965726096115,2.1248792332961743
1,0,2.7190995745042486,2.3697907429115617,3.8651665419625068,8.197128077523423,6.599162865918055,2.3737866394274274,1.7034301948423283,2.1408343277014907
1,0,2.9881870699023145,2.369668898993409,4.01051355589016,6.818515424458152,6.914384920790781,2.530027369618459,1.8301636542782849,2.1999152121565047
1,0,3.1035104920028105,2.5252844770309335,4.408293430559319,7.2351300251257396,5.894472188686027,2.313606918405537,1.9539242103153087,2.1253778904233647
1,0,3.235722486316333,2.660147299559437,4.024620602516627,6.751079526151482,5.985289642525059,2.3901709779415596,1.9079725683966287,1.9907060912645302
1,0,3.192619722434517,2.9410876540010142,4.343484555933887,7.33799099940374,6.351438392879847,2.456736852685441,2.0067482100445093,1.9551271159605574
1,0,3.277261542073954,2.8797265496670628,4.624667289213403,7.863181981775457,6.769567976870273,2.5761703405838645,2.1422237402816426,2.0292135630228327
1,0,2.9227979084440445,2.861879612267228,4.331557923521656,7.988694311500811,6.864281948252813,2.588765147417977,2.1263593487260226,1.878728223909998
1,0,2.0885570133886033,2.316414109562896,4.038252184468664,5.831263868266698,4.195615611477664,2.3577141835398714,2.0592856151001397,1.721960002902024
1,0,2.021631802466815,2.4364493468384953,3.4826422613965646,5.842178657550526,4.173558877751501,2.5183169867580117,2.1239499362917296,1.6890810756351213
1,0,2.1078954100215004,2.439606272270247,3.4061830090835907,6.102782797300563,4.537078878922986,2.398933554732891,1.983758911527447,1.7277790557988528
1,0,2.121571098648494,2.338704955120671,3.0730119565221403,6.288155402603021,4.201581965405285,2.4557960259485867,2.121473278321587,1.701741845513208
1,0,2.1657985806508444,2.594976580889952,3.2589044355290024,6.136900842788155,4.2640439062333675,2.4841303046612966,2.169442129166572,1.8625012375737406
1,0,2.228241448317697,2.6427073648899793,3.5375464974515274,6.833411083757242,4.434282738024448,2.6277426756632636,1.9391823966543513,1.6456694632744024
1,0,2.299482184808203,2.317987365724395,3.1241211524998085,6.12470250955681,4.928166821629511,2.233601498452488,2.0753083561679206,1.5572435585013575
1,0,2.2818802604653263,2.329025821621516,3.02895364315088,6.398657686372968,4.590076507788778,2.2862987297025996,2.0920995235331605,1.6526210322004569
1,0,2.3716979743587756,2.34268423717923,3.1360580690191155,6.513846146289455,4.915950311459796,2.2111533315133998,1.8974073687237603,1.555922943385832
1,0,2.5841447810785763,2.3034464011922537,3.3538859051888132,5.766150848016973,5.55290986519729,2.191066136718497,1.9595706211271033,1.6621407879434014
1,0,2.0773398434313677,2.4368646066130015,2.743889198381338,5.459122684701263,4.3926743823001715,2.238411491219479,1.7960551396171431,1.4642233530522848
1,0,2.168985881417995,2.2737619466248065,2.9211143983065995,5.49578218424371,3.719504625368043,1.8399391272549581,1.7013965706050669,1.3526362034475148
1,0,1.9310284526183656,2.3771954442439576,2.939686302706127,6.381953243303886,3.789285443759341,1.8377315546703885,1.8605856636048403,1.4264543607118185
1,0,2.4612096677832027,2.536213814583193,3.176980578885395,6.8380787049725384,4.682289102267067,1.9907163213368921,2.047272141196643,1.4060735193076097
1,0,2.573275195715806,2.3359135296719664,3.5314825605292333,6.786931735419866,3.9406113321429146,2.1018537607293375,1.8800914900165835,1.54229860685635
1,0,2.649607031445551,2.4136283091500976,3.4168362044486544,6.546061904706731,4.353622516645105,2.107337287530674,2.0543024862943615,1.6325889094021755
1,0,2.5728506016201353,2.485990594883746,3.6549715864188212,6.761714584939648,4.350395438204066,2.2962400541624595,1.9713749749648946,1.7543013547481214
1,0,2.626473321422354,2.755966891341679,4.064265691253768,7.648253377931875,4.70193750876569,2.2912330069710736,2.2130239385041355,1.8111530951362722
1,0,2.6912101612971853,2.706885948166688,4.135681405976969,7.957177256429649,4.744201397440763,2.1670196697954984,2.1419072025732113,1.7442094625046893
1,0,2.6089805256735517,2.636531190897828,4.224756764754389,6.910092531133687,4.195389672966153,2.314328143324094,1.9343083931575062,1.8448175507661768
1,0,2.27422983131613,2.4760005921770523,3.889439541893253,6.364931762017164,4.714693337784803,2.479687470031389,2.170616252584729,1.5335186225732444
1,0,2.598543148560819,2.703514994844456,4.015945596398527,6.612873516040901,4.386665333150297,2.0479782270493994,2.165838512751751,1.6288374232649785
1,0,2.3682627106203995,2.7690445305825686,4.529265023222862,7.661708453556002,4.396385526562825,2.1982312030050086,2.0411878256301894,1.9175797640296297
1,0,2.438013690102639,2.5814908575733737,3.513193994913801,6.801143860516585,4.126373668732302,2.2885751927870235,2.0852301857159317,1.6204898703220185
1,0,2.8116239678729813,3.0770214868676997,4.047468295431317,6.975957820150179,4.10086585745204,2.5351304302391022,2.1600991770685756,1.6961952215743432
1,0,2.4564680542817725,2.6878293918568343,3.500352709609557,6.64061848193458,4.0853589923542355,2.7451107647041346,1.7150161667892696,1.7156593258835524
1,0,2.0197576964060078,2.4038719864855103,3.130104896280223,6.563695663518701,4.530125909079595,2.451446054679046,1.608816144213665,1.6149884620167996
1,0,2.083639524722741,2.6975686607866245,3.5493212969492993,6.75078515328066,4.541652475826851,2.290955618111289,1.6068333525632483,1.6754331669207099
1,0,2.155641135724224,2.257980135079092,3.1987217947540336,6.667658683594645,5.222265221048437,2.509709332408409,1.7689770728844687,1.840562887135654
1,0,2.2746202669226534,2.284516607860164,3.2839211799478845,7.376130155149184,5.926121281810796,2.6994264253948357,1.8383540716800888,1.858582184483896
1,0,2.319574137220026,2.38688589874409,3.608636737546533,7.267815584476713,5.942684141748322,2.437064612714181,1.8715995240379364,1.9977163502239277
1,0,2.27695725419069,2.4559663970528236,3.535204750154305,7.288579073666993,6.562902785160448,2.7152292812611334,1.7425888300352181,1.8871818036122578
1,0,2.2689672019237355,2.4174802832630395,3.3310941232578406,6.476509559484708,5.814073572534799,2.2502598684876904,1.5186361794162984,2.0057840864691467
1,0,2.3743940528698437,2.508124352001929,3.5483357290732718,7.169261106310911,5.917768314489805,2.411561023216511,1.5764793900717469,1.9694744021992339
1,0,2.3203499124486617,2.6621100098856703,3.733906700534596,7.185924375849983,6.143527192692783,2.149053105130819,1.628571819855622,2.029697866461518
1,0,2.597256762135656,2.273856006181744,3.947590920437117,7.372346034593687,6.365458336298447,2.2473622949081076,1.701236253944613,2.0743512143126006
1,0,2.663494430725026,2.17798753402435,3.5690529277614655,6.891725462076755,5.516382467007461,2.3893859954818666,1.8068299836151174,1.9503138030402876
1,0,2.540842621513205,2.150443173210677,3.046232381315415,6.203492960634516,4.7685817517014835,2.2960232835034233,1.6203999306814196,2.046824623014302
1,0,2.566697777207387,2.2100667336192794,3.3609609311361672,6.788840324248494,4.675345592572466,2.1917737553302756,1.7654256186221438,2.103728110589065
1,0,2.5863160375991017,2.4903124062070034,3.521463843272441,6.485689510875546,5.42359289319144,2.4090721062834737,1.8167932505236928,2.05684105139342
1,0,2.8391286690492654,2.364700993590595,4.160765676879806,6.519882097286099,4.903345629029862,2.8274209984252097,1.80480136852987,2.2947825349255853
1,0,2.599513279448799,2.35559638557376,4.297076201732823,6.403945154460147,5.055438244443506,2.5711230347290797,1.9141626642801524,2.1927976535205835
1,0,2.382031411107839,2.642379331207448,4.0851018845516895,6.9966293984867445,5.136608308529357,2.2462974340525603,1.6025112416526255,1.850595255711512
1,0,2.3114741434345256,2.6871665849892508,4.281592846612317,6.472065372212337,5.439427731278111,2.2359338437958054,1.7232100657354825,1.9020249862278888
1,0,2.061311788929773,2.731483620972858,4.0076837704540615,5.934141300986717,5.351715252365823,2.0686362691215283,1.6069009805970502,1.9883436796735132
1,0,1.9268695340648736,2.8913799892911984,3.9197230078130643,6.035471443500541,5.452905756485405,2.080807108814121,1.5409920604457001,2.0749321709214414
1,0,1.958123408993598,2.7132857020694403,3.7172009904508343,5.578791616280985,5.3513512118164375,2.232767088602829,1.659076941188952,1.8924600673432168
1,0,2.1482007126667617,2.84104033086338,3.8668721211802017,5.452960709141249,5.584243599528715,2.1887912351200254,1.613676335016419,1.6196136917596031
1,0,2.2494716915174577,3.0414387129532097,3.780384272981555,5.579499155125512,5.856350566768332,2.2207508608426796,1.5539309603641067,1.556945291495927
1,0,2.219037682459482,2.8005349916531683,3.57229436850193,5.878638741223341,5.562559639632812,2.3869397986114067,1.732409202923934,1.7739018070202426
1,0,2.2703572853538967,2.5860945803644864,3.5857062914822277,5.458120629535067,5.5900584953265895,2.493725207401477,1.694925000597769,1.8771758301866341
1,0,2.7106959359705396,2.3883308882900636,3.6509290633371987,5.866676648729399,6.186369426045424,2.43543213242866,1.7034157428590075,1.9862600713238194
1,0,2.7095510778522884,2.285796833208492,3.1718755524864326,5.389256877959391,6.318514118942378,2.444888404356366,1.6201087722917615,1.8352702500073508
1,0,2.533933817490734,2.4615412803855032,3.424459140966152,5.891354138259455,5.764876696809697,2.4314524467796974,1.6080249905686903,2.003379599355939
1,0,2.563250403899904,2.7139238384122737,3.90243413478386,6.328050008296738,6.368401205030791,2.656228914332603,1.5527140015661391,2.104718100811276
1,0,2.3301220285835376,2.409961249571613,3.2530886538687693,5.900623839184828,6.901909871811851,2.6741690720976092,1.524244084457136,1.8938270969784239
1,0,2.4790837365359164,2.5993818846924484,3.4665055361734347,5.729467087721601,7.4098763374002585,2.7705717949558473,1.4886323134193162,1.674888037567162
1,0,2.4557075939801907,2.2335086450159545,3.4114680571655933,5.132733561367443,6.747713889234246,2.587117736108028,1.4702918283388877,1.6832638836983804
1,0,2.479935664922483,2.4078390085954062,3.2297759114712608,5.199589828197221,5.516474541027977,2.40602933457025,1.4608725944246472,1.6951912756198968
1,0,2.4442524321971537,2.3849101896079192,3.618143790097891,5.77708285620798,5.80820969144656,2.462796299093846,1.6476251287052428,1.6196641596932555
1,0,2.2221270939296236,2.1449409921747713,3.2740825150713753,5.942647587089876,6.36993105225699,2.1640186382832884,1.4206342257453306,1.5819111802845118
1,0,2.3751349696359596,2.286742338921202,3.592680708845034,6.878035201125495,6.399668218764946,2.2615111570279836,1.4092484367901128,1.6605353714314206
1,0,2.6440000326017916,2.5796323926571736,3.6284646581717617,7.046732317309196,6.6438876195672485,1.9909144874602291,1.496974741365395,1.5233372660565603
1,0,2.5025756132690025,2.474193829197644,3.5853441929986687,7.233254289593015,6.886316083823443,2.0483736268330968,1.527589798191439,1.2881991968814368
1,0,2.4842044079746644,2.405614534180446,3.4727946686958577,7.409202715916116,7.297657541902879,2.2990805512706,1.4689231917481325,1.312277468472703
1,0,2.5245435165217995,2.682356210459425,3.7888456233930454,8.409604124978975,7.567667840490328,1.9668577514118961,1.483460169254161,1.4520999525525617
1,0,2.442344169499874,2.7184015041319807,3.913020478932958,8.664435761193094,6.950383921038986,2.0066324055993077,1.5122837239321383,1.421941223794774
1,0,2.137246163132936,2.8507201997669913,3.870309080500361,6.798829243180607,6.529270805683008,2.4132537501101665,1.4143747133669333,1.5575298429815623
1,0,2.0561949777205184,2.6097235473035676,3.9240140921489597,7.35231947860818,6.734341396107939,2.2648021895598087,1.608564320733239,1.3311452321827697
1,0,2.2047696929059706,2.830638784335112,4.072957493849108,7.627934176082338,6.817302428296822,2.4583383884346843,1.828267673328568,1.4316271602667627
1,0,2.0956401374851272,2.41811898086168,3.4323841091922804,5.682160919902369,6.0697721669543485,1.943723003506025,1.4338281425657038,1.6336281533715804
1,0,2.140948797575404,2.291526454196095,3.241408768786812,6.10933582048949,6.330406676278552,1.968359795380049,1.538274860644287,1.6618174108532966
1,0,2.0605697537987266,2.529291181570075,3.2164941166889474,6.588132212936898,5.433002006164343,1.9233256211280454,1.4106599959588249,1.82812585486509
1,0,2.060185103426519,2.367416255800157,3.570194361993974,7.5868485003177835,6.437763543108908,2.0068806151953535,1.3985882955350852,1.9009805169378755
1,0,2.2121112918562185,2.7228131205655495,3.7085235099458154,8.436258405204054,6.47325436930941,2.1641755807849243,1.672744793184859,1.8180122993658736
1,0,2.0236675299881317,2.1339248228896577,3.0725459516425615,6.778011509238248,6.954957389391537,2.335733480632959,1.7725108772812916,1.86814493720828
1,0,2.2249554675960312,2.1516066079007583,3.4056434653100363,7.619309633399423,6.439027867842851,2.356259539323708,1.9106284881577134,1.9029613427659773
1,0,2.285217480519024,2.2830446558058988,3.3227180189288825,6.519337684191788,6.4484022465673805,2.342998131052853,1.7407663575071664,2.0015068170538806
1,0,2.2308545433208495,2.1672893182419286,2.994537864168689,6.04381321466434,6.3511127241680825,2.1404097245958456,1.6905890687441778,2.2583866177579117
1,0,2.273404244689296,2.030397834891241,2.7593602264236403,6.248405705019258,5.859891887753441,2.2814341129360116,1.8804730909414145,2.1804110511464363
1,0,2.4021690766081774,1.8072248964704136,2.9112978755963947,6.549916904843829,5.632596943432569,2.1640909964557373,1.9917645755877111,2.296165428041548
1,0,2.0089621305371486,1.7669246337415219,2.8516871719133006,6.212633039614062,5.06231950607109,2.0607073288662576,2.1023176176007086,2.4000048938460172
1,0,2.1427982035694164,1.964609333680434,3.0200301570428607,6.77484735199103,5.159558623840789,2.165213935088164,2.1764430738984673,2.6073351210231217
1,0,2.127819241437875,2.0616951791732125,3.342867193636338,6.067216023381398,5.177972483265295,2.107089073041694,2.134542634052353,2.4876424365465812
1,0,2.1209580951907303,2.105451906295989,3.3021844347637517,6.332045750184288,5.900156036590591,1.9834266246350716,2.338579558514268,2.5803377824561595
1,0,2.2964197262024353,2.2960850230801397,3.132977791760066,5.919360276552025,5.290838820839173,2.067038945510474,2.254494459444883,2.516683280595455
1,0,2.2823198637218325,2.5188989491776876,3.52991155828348,6.583237199821599,5.548626158122912,2.002863358041432,2.200708859189518,2.7068354815598767
1,0,2.2337171724110325,2.6174300700649162,3.6126407370638756,6.253192171896168,5.958777533924142,2.096658287104143,2.0370445784140463,2.4014461258175808
1,0,2.6527500674373745,2.5167737138640085,3.3854766415465627,5.867587654789865,6.130463001374871,2.169359438427267,2.0351440219288643,2.3717216622732287
1,0,2.496343541912757,2.5116956384919984,3.5577405659071486,6.345440202970474,6.657741084004938,2.1584595151411055,1.8085950872800873,2.227648798663054
1,0,2.391744117223628,2.1962470006766273,3.4446534219972578,6.7259231537237785,6.411100561990229,2.291426117845176,2.0748809460429,2.240542582169695
1,0,2.4396306229190667,2.203482887568945,3.392034575012086,5.725909878188889,5.6102851462725605,2.0381922243615214,1.8177608060533437,1.9621907849989135
1,0,2.270454894976251,2.154285298362289,3.5549231826253003,6.328152054783335,5.725270188486273,2.1059368149971323,1.9049905213061913,1.8441034909865142
1,0,2.3599892340145794,2.2111241442192338,3.771722227779373,6.8250732275626405,5.741876273309509,1.8719982110366107,2.0217467379710756,1.7641623455746167
1,0,2.6079740920253514,2.378901591534564,3.780091145504028,6.354030425300429,6.4801321685799715,2.040441139024426,1.9915724921179863,1.8587093871952256
1,0,2.6490654228727077,2.5249805533538843,3.608747058250138,6.229216462949826,6.452660573657619,1.9078594105772784,1.9725321411782974,1.8567220912534237
1,0,2.458710597197582,2.818647192746704,3.4698444401529267,6.26743149865907,5.792882325669452,1.8332021532301042,1.955429220944752,1.8770314076378645
1,0,2.448498156642172,2.855208349510389,3.8083577237969557,6.366259173013868,5.712269488282005,1.8671289431760838,1.9720837841655758,1.7644073074117232
1,0,2.5969618062710746,2.8732505336259124,3.9032566636421135,6.58407732163218,5.869977241172763,1.8423475525535407,1.7301042956444561,1.8737204845312097
1,1,3.2035402394091754,3.8105671114277686,6.139667222163551,12.438205328687424,4.478745697306909,1.8198925785212916,2.0724411449598215,2.450046570927182
1,1,2.8446064640304516,3.6450152334537766,5.74492671516822,11.525191337927161,3.961532177880856,1.7288346701110011,1.8248236809961098,2.4185092887191075
1,1,3.013700414364533,3.9642803870271752,6.204780852197547,11.904259206691954,3.6291033786201647,1.856645684175884,2.0963133565192944,2.4900943980282064
1,1,2.9231386035067244,3.760928146430295,6.255246691505679,11.65784787493811,4.017725723404612,1.9863684682998388,2.147432333240675,2.515033843713964
1,1,2.43456841994791,3.3857469907639874,5.5837987351809035,11.343428135018161,4.176485680160227,1.949312708913078,2.0275135465983576,2.4791370239386157
1,1,2.7008020189580098,3.838749794112778,6.01964302730218,13.156426910948285,4.174085591016409,1.9463308606317733,2.141121405158353,2.4741618197017203
1,1,2.598041089636698,3.3995066657391244,5.564471357821623,11.024913101455105,3.8663896494538976,1.3962464393369427,2.4629729613300495,2.1389590076566134
1,1,2.3724986751461223,3.224319869365711,5.520575501535055,10.7943841560007,4.412414267088032,1.5502132672823514,2.662720791221607,1.993375843763652
1,1,2.4956859930334496,3.2779623698061795,4.691371475045899,9.845793232959764,4.693406954299813,1.5971587687159328,2.749615246746001,2.0263845729643624
1,1,2.6613633773325125,3.702879455951179,5.063942504359145,10.00339358080903,4.558080875592442,1.715633382220911,2.4844308713790983,1.9427567190007644
1,1,2.779971787673929,3.9085152550141675,5.442836511955138,10.358568578402373,4.572538926084613,1.8166773823453977,2.755852454819804,2.1331665511920965
1,1,2.596692554292939,3.6978000501651858,5.244175169344163,10.046722948431501,4.735267034193168,1.8554949601811688,2.884975993975863,1.6865900074185876
1,1,2.575090686647159,3.7169601394729144,4.742708449585398,9.393502561353527,5.160453941478739,1.8212440326129529,2.5061204478014334,1.500439716599828
1,1,2.9809512102604194,3.813250019638775,5.326039095724644,10.143699618986961,4.9430423050229795,2.090504012788382,3.039992404492381,1.4938109658092367
1,1,2.654839510516268,3.961922343586513,5.193450155409263,8.054729271526698,5.466594757477658,2.005193366947115,2.501411748267212,1.6848729550553267
1,1,2.717121617772787,3.754544337014092,5.344285741495662,7.998346346190142,5.603526928699492,1.808486640077107,2.5997728351222356,1.7273372046772653
1,1,2.864291760085922,3.534662968308236,5.575927327084624,8.627326594899415,5.6406226872999765,1.939619511824508,2.3783455144047227,1.840616737646713
1,1,3.0905009411100233,3.5178648718676446,6.090031517114446,9.364507081422138,5.623029613585299,2.19637999121281,2.684883314750777,2.093084936586265
1,1,3.5277288598323295,3.404653347934485,5.5119425041929,8.081203656541874,6.4679423796360975,2.1299377144778098,2.7400474818509686,2.107850633390011
1,1,2.801630753975428,2.9270185269761817,4.781587765260077,6.916100265794608,5.876761013350632,1.9634343279208961,2.3696199953464303,1.717007982247941
1,1,2.9207211678129648,2.932793732972963,4.812037088123325,7.532636391041655,6.151955402622543,1.959398434303275,2.076543450172347,1.805054546108092
1,1,2.645131175904442,2.459688230427971,4.422714918794208,6.826581434003542,6.0215807227877605,2.0114579658382246,1.7384974938640738,1.8719396802582515
1,1,2.6795172554700595,2.4630702773071484,4.667940452838323,6.760609967039962,4.571262578232413,2.0455584125406863,1.862460225903219,1.739866214674791
1,1,2.8909693866644712,2.4596090365739425,4.075941685644388,6.66886144813211,4.837030505309505,1.941200891509212,1.68778051942985,1.9568042982529066
1,1,2.7051236387886806,2.7137929094810076,4.2335233200807965,7.04527579587303,5.309104091688897,2.1747339098944964,1.8405112766683691,1.7069525022303247
1,1,2.9168434299961423,2.9111634672254376,4.660593200018328,8.571095033139859,5.671046598163288,1.9972837158090215,1.6014210134199658,1.8949526520097009
1,1,2.553624642946707,2.8352810556663215,4.739008898933845,8.680987208155292,5.553708267223745,1.9623835669762624,1.7194917870813669,2.1151743377615264
1,1,2.6653017176903586,2.7179800508453327,4.78751895024675,8.042208653265613,5.958122450997386,1.91474596348922,1.7520117007563047,2.031995139880229
1,1,2.7669245921391785,3.0026400311146104,5.016983701276745,8.195135628205678,6.010302690648617,2.0023127782825796,1.7829090832633525,2.006012898637531
1,1,2.5752268939040235,2.7207384714938274,4.812733562155712,8.062981423901821,6.735476901748863,2.161777389555718,1.5969426468840429,1.8928930993065776
1,1,2.8604193076411137,3.2474298044794345,4.912217791639871,8.067451065464152,5.59337916084267,2.382983666350686,1.5993454143357235,2.151777288068269
1,1,3.1960973978779457,3.513224290586102,5.045850227895744,8.68477011657175,5.721185006245818,2.223980611911192,1.723597201224665,2.2385412644541116
1,1,3.0706487012420993,3.8031067664800062,4.990459452093708,8.764543243495517,5.851346439051171,2.3183388382093777,1.7497067440264695,2.207463447686788
1,1,3.256440720397164,3.939029398508609,5.209938513212862,9.039835915584487,5.26050195929519,2.3162796034416426,1.731778819383617,2.2885543690068975
1,1,3.219658084359939,3.9960152550308585,5.4023051543593725,9.76579240035734,5.2633723913815915,2.2071173102331008,1.9733642266401663,2.1666408107201427
1,1,3.266922790561287,3.694702728737677,4.980003621203807,10.39140275618867,5.638850919606592,2.1777958915505606,1.8608994879601573,2.3057657849199003
1,1,3.2659188643093704,3.4872703485464487,4.9748631602050795,9.20823182044313,5.566702189053385,2.218928895734014,1.7541037371164634,2.5599822236273404
1,1,3.2155133741800075,3.7702506172108023,5.336032966535512,9.690835428675651,5.196037937506658,2.3031030333583846,1.8812126239728444,2.7222090353046537
1,1,2.7701948412488746,3.2905386677436317,4.599210666259161,7.774986140540428,5.884679328566281,2.1968386562844913,1.5811750992254459,2.6482760345101872
1,1,2.950063901844005,3.4305729170330106,4.797981637590305,8.127008397700925,5.399299435952434,2.037865170986204,1.7019512753905692,2.8101725250881047
1,1,2.751149034710467,3.5045206589618796,4.461795587344762,8.491369244684577,5.857598828314925,1.894798347412465,1.6728352937377258,2.4895556366893667
1,1,2.8328625084601664,3.6702615286158,4.841964939308179,9.305497244891814,6.159757828413157,1.5932103762397096,1.5952224367968473,2.506453592954684
1,1,2.7229982361238196,3.1942724979109287,4.252941871727103,7.554766715460787,5.2414359952901,1.5112967086756268,1.67063552542618,2.2970738317159567
1,1,2.7746637778157597,3.42670430206888,4.685822498965708,8.36752288590117,5.8029446856890585,1.6978985022463702,1.8172488201254016,2.397275788457385
1,1,3.0521108097271004,3.635323268084684,5.151963007967641,8.552233399364841,5.531851429111197,1.7647837153379915,1.8209163969519717,2.328986102740231
1,1,3.4813416416112957,3.7482326767123246,5.90389967750785,9.484563568512938,5.086438958384314,2.1400729973827595,2.1494906992950997,2.3713146484998573
1,1,3.2629830899405294,3.786529346123727,5.392812749843633,9.697964704083404,5.14326014456377,2.1220932163205632,2.253244737277359,1.974074722902659
1,1,3.0459736536289594,4.383126126935927,5.4240796110718295,9.628330878035458,4.9059589132019195,2.204053146071961,2.230667633429898,2.3104050981425015
1,1,2.913837977563407,3.7452816743079795,5.59688668876183,8.799839896087784,4.908708698653574,2.315436790698951,2.1706875125194567,2.4086791241878953
1,1,2.878844608753879,3.9651226170058194,5.608991009498518,8.212197276726593,4.386341100771209,2.216932352847253,2.086120601978234,2.3577315917257886
1,1,3.471125411308154,4.370899166778071,6.3291118976524245,10.422746994243177,4.971978884387558,2.3318027040082283,2.199089565944734,2.5098959908158913
1,1,2.9854314536596402,3.743642373502655,5.355587016682305,9.699047345444844,5.38347213458226,2.3804373370586873,2.355833516596066,2.195280897180947
1,1,3.5375419187438624,4.106424793823645,6.002274804477816,10.393275141565132,5.779754466647702,2.6870324704527717,2.3799652098083937,2.701233388364064
1,1,3.5407000438561913,3.991159164019334,5.856599240692038,10.025892430105138,4.77606983255846,2.5225453524557317,2.3864231096603032,2.701889008930865
1,1,3.624806500451145,3.6857890539936506,6.044945537796317,10.064194799999957,4.854297732225023,2.795270422945563,2.1062320144651183,2.758442329416022
1,1,3.4688138038465257,3.538109105510536,5.457491505988487,10.079733182750712,4.523572975827552,2.760349524430512,2.0650011548112466,2.7653058138968505
1,1,3.6357385257120574,3.305189692077009,5.332174491475726,8.997962718934236,4.400961952344643,2.5986550890171287,2.291327575547382,2.8696451932350766
1,1,3.2217802449808133,3.1396808206150135,4.929351710944484,9.335635162343833,4.6496815050774964,2.3954790216711057,2.070465283754706,2.8254242806331082
1,1,3.081571920322027,3.1762055137139167,5.4167858432966645,9.809472118417641,4.013800119153422,2.453707947563802,2.093380536215558,2.5416417000787175
1,1,3.0345753981830117,3.5597160758646544,5.474710566118922,9.05961322590819,4.3048023591573275,2.8788977215634857,2.2010984513228946,2.7957456914157848
1,1,2.683649118579128,3.102636527788195,4.607845889956741,8.184529066462229,4.533709683902364,2.4657014432516693,1.9560942909503856,2.549540764582813
1,1,2.90158366575308,2.724071095728674,4.540347858342968,8.098411735821728,4.812150915235211,1.9177494118842942,2.0385236064950103,2.097239259009874
1,1,3.158496742912106,2.6406830487607835,4.653108220438951,7.817271349328726,5.005766493116046,2.207375984995435,1.94241761150045,2.366156346930942
1,1,3.21774854246048,2.9592676665793896,4.778192918749657,8.768158888897347,5.039109855340287,2.00197876331833,2.1047563000464677,2.4939639802217615
1,1,3.450200820955755,2.8530961626970726,4.507760744628783,8.873623195291252,4.988036745129803,1.8032237547767365,2.1605294422528116,2.5628622460413664
1,1,2.6348036828033847,2.2227883566791427,3.0775282878935495,7.118210905929089,5.457114474005295,1.534498149321398,1.8314115992229385,1.78400485178334
1,1,2.635618768521544,2.274790033224372,3.1438178509653563,5.674993408203047,5.124791246198394,1.5840993646402637,1.9048733824935755,1.7489862964025773
1,1,2.802903546330169,2.2738403444853104,3.2840214825479164,6.1459932708928635,4.087854721929435,1.7656467777741456,1.945725412260644,1.8784407290283922
1,1,2.7769185760496664,2.2468489784723085,3.4068932997331154,5.531544814936231,4.1318978547737135,1.6827381353398567,2.0383954172660816,2.0147052548897606
1,1,2.7554669098812714,2.0137330363599095,3.5210766155891817,6.06660417041326,4.24289087384462,1.8432890484411604,2.024574814704112,1.8523774745096482
1,1,3.003951019488647,2.2622938402983914,3.8226192973916557,5.95873172941621,3.9822066398281573,1.9446191424076984,2.0278537581300853,1.9222593029454345
1,1,3.013407032468983,2.3304409437206406,3.9281518204761725,5.923821219808323,3.7892477849324386,2.0582260026503434,2.0471054122108074,2.116746444382695
1,1,3.2474290003669193,2.5464751469997147,3.9114878147429155,5.823181599888928,4.22542352280284,2.3143318181669303,2.3535718987779894,2.25330460465811
1,1,3.1819639536076076,2.836737675769741,3.941183558208281,5.60367955944293,4.159060397726934,2.1020128266865084,2.033163093341811,2.312404689148402
1,1,3.286615106129237,3.002252108197768,4.296865507222192,5.967272847962773,4.1434484708475345,2.2218759563705026,1.9375018412766225,2.3437635404323314
1,1,3.027639615608848,2.791111511559344,4.221398438566017,6.420503263451102,4.218558410740787,2.1435643446504424,2.0792844956696155,2.3046146027618053
1,1,2.8165157726846064,2.5165527947699347,3.9566593082195003,5.657682965868496,4.255864954792407,1.9904670243703253,1.8282662589438032,2.008958876690608
1,1,2.7786995430710557,2.7628515520601096,3.7707817493624076,5.820954803660376,3.9604981469834852,2.035312474338004,1.7006538235848905,1.9868553986865192
1,1,3.0737695301250962,2.719268720698433,3.87243508664366,6.475602154580544,4.149096889856241,2.2720522761770647,1.6224153706194484,2.1637185650350026
1,1,2.6401607215771903,2.028358968989774,3.1781725552125635,4.885897904796165,4.506288648264407,1.7952337689616058,1.459989693358971,1.5288694452979277
1,1,2.3204683097482537,1.9668255508173986,3.489089285300268,4.753239213045876,4.082715410805107,2.0378598344475582,1.5151735531027803,1.4471220657309571
1,1,2.4298118703491336,2.1909017351613618,3.638934753073401,4.728438249277,4.390330575644643,2.069265171571018,1.4932514601002425,1.5695625612463473
1,1,2.520240469727913,2.0455163513726804,3.688759691613014,5.134820825440435,4.564828785981304,2.300572234391153,1.6412252981619744,1.5554054348385484
1,1,2.3300569012434393,2.031896794506362,3.4894720056353,5.1175534696103675,5.207504766320859,1.6904746159961612,1.646265158227627,1.5016306109888202
1,1,2.4258590296556424,2.2451134998703264,3.021581323221274,5.465184116227812,5.031133593755477,1.7006988613379088,1.6270266459871197,1.7022060004937485
1,1,2.0086993311209813,1.835676876834658,2.382907762307564,5.077380018915962,4.222423585703373,1.8694983574455621,1.518460369823616,1.7098798271175208
1,1,2.142900485213206,1.9890199185636577,2.4769889097630826,4.415617639228629,4.167300203851024,1.9995041209978721,1.5231511698336355,1.6488476164441923
1,1,2.202007009482221,2.228231263986471,2.5981516863325718,4.920502333591687,4.276235179553282,1.9938239039801786,1.6571247916281482,1.8177755937136655
1,1,2.4242845425179107,2.1673469498247653,2.6003786501002404,5.195336974500121,4.065040992010442,2.0087070555118416,1.5871227855215784,1.8470581993354935
1,1,2.7216808641103825,2.1076969712733447,2.8845069040232563,5.2609175568309885,4.2188034103426455,1.8649492825546226,1.548001457423082,1.8001669257831807
1,1,2.6146374658037606,2.398244456408132,3.1433031983673576,5.194737592443379,4.379820691042649,1.9090615768313741,1.6255092795788606,1.8010630538089052
1,1,2.2354693861683415,2.173022120278613,3.0074297966542796,5.606694238090416,4.521778531905119,1.9225469685807406,1.8157443308413679,1.7315076311859972
1,1,2.5235674595570163,2.4688301246749926,3.248113325454924,6.296075119138485,4.556371383579587,2.060806776763233,1.799331605600766,1.763640052355524
1,1,2.4643058181114856,2.3347458036275825,3.4898671512670933,6.221189541858738,5.099349945767827,2.3332614127371496,1.4899019511839722,1.7901427351381531
1,1,2.178109504391246,2.110940405218637,3.5835011659247744,5.983877054945469,5.4443398565529595,2.234017703477016,1.5445620614345592,1.7484902082795384
1,1,2.374132302382592,2.166662530895893,3.670216867537231,5.848698952638156,5.214240669285523,2.1555390903141887,1.6339792068494845,1.532285570007435
1,1,2.1450347763708715,2.1378345001869885,3.323431492805318,5.553487920356276,4.6343779814506165,2.2018009441064716,1.6615181852436445,1.6081550239988884
1,1,2.1636438666441427,2.2763358793022785,3.6052301039424086,6.280210663204086,4.630031447126147,2.256258337592357,1.6504489119009689,1.7034660272744715
1,1,2.3450270298787768,2.459757499005361,3.6405239316435662,7.01753471628573,5.1780889086643125,2.183801314741745,1.581636701546377,1.7591207888731568
1,1,2.3710369732356105,2.5889652217570043,3.877241660330731,6.0047465642690385,4.91652388086717,2.2090281292293623,1.664282002087609,1.7134584573439149
1,1,2.5513844796516643,2.5093060626999346,3.677594166080351,5.959934411563412,5.400183567874829,2.2114606629053792,1.811408332529513,1.8008891501501956
1,1,2.3517110063076427,2.5061868346175253,3.57052291287937,6.022012761838852,5.5078359993073756,2.232393481947391,1.7152320131220768,1.8344743688566245
1,1,2.5056909300794312,2.728880697716167,3.879448737683807,6.184440492361915,5.063344449475604,2.221914297672463,1.670382506040971,1.788098809785501
1,1,2.4399281250691347,2.631103352221803,4.056062868376166,6.433548851626084,5.569086325943215,1.9671894224550948,1.6401357179368024,1.883807632390117
1,1,2.6486006254770977,2.798806371191302,3.774698705694931,6.976551527759826,4.878052349351427,2.1022293133109233,1.7001090052206707,1.830949990235122
1,1,2.3954933850200186,2.5697720406330937,3.878290962200175,7.120678581065164,5.03168766102212,2.233654653325304,1.7131553436178208,1.6063280532906368
1,1,2.3735054213228755,2.515162982601789,4.01585458009803,7.220269585711822,5.05554675630282,2.0187634402006793,1.6652444610421622,1.6557488212276374
1,1,2.285087075598296,2.6448358709658395,3.97761843377089,7.106563584134584,5.910581232825956,2.3125824269219506,1.5093026133942447,1.760336062235845
1,1,2.595876678523115,2.672679351657027,4.132962614587252,7.037293143935688,6.080024965257219,2.33533172311485,1.6610874970691507,1.8153646723273031
1,1,2.6286742290290954,2.6014493164410357,4.315221096026294,7.346627248651053,6.357191680117152,2.302585969849092,1.7827769108709046,1.7946629833163674
1,1,2.5029538534464004,2.4335597950002725,4.165592664226658,7.371108342727523,6.632146301130498,2.3682743162862763,2.071583276004064,1.6974869253101206
1,2,3.819075213865477,3.1055395339092473,5.326085974410284,9.462588899228269,6.163150354315288,2.2678395988962077,1.9887594091047482,2.235408446647656
1,2,3.4590853388158966,2.248172013686063,3.983483361187288,8.355690819876989,5.640007339303153,2.091434285798666,1.767976775991623,2.0553428420756163
1,2,3.2815674400040713,2.3699970145644276,4.1113507598531305,8.842754640905415,6.429989001677167,2.1390839315275403,1.8243126363086135,2.0659322538964093
1,2,3.4493758687372424,2.24602397249838,4.1914390073944565,9.034957659242448,6.132484405652036,2.308630157491754,1.8746196545394973,2.020291967346642
1,2,2.8939521886295183,2.327826926366058,3.6975174438549656,8.117846726844057,5.872397589023297,2.36161410880699,1.8967188214066593,1.895947177070046
1,2,2.952783002772173,2.6350373611395166,3.927612905952048,9.081911437604829,6.30580639585828,2.323294399070361,1.9559990189061134,1.8709979403963373
1,2,3.1140643391870815,2.182789682760511,3.9378142108593863,9.392392260848059,7.1834872855567475,2.273154458274907,2.0158586474737015,1.6782734741424334
1,2,2.9494487876589957,2.407939323605558,4.061703711480479,9.31416515042956,7.224273538767564,2.3920206437277174,1.898090818708635,1.6889746612610774
1,2,3.145107135264711,2.5717300876108085,4.390869974267633,9.054941816186663,8.739483477252831,2.360265293514377,1.9364991882973224,1.709972925977951
1,2,2.942547835306937,2.803025729882229,4.37653702875062,8.449753827226843,7.114734151146765,2.0116986487521844,1.647633125175954,1.414351070677194
1,2,3.0714581354881774,3.022289770251309,4.488937947922762,8.674275022602197,7.058234187281181,2.0115046097960825,1.5606733860851174,1.5920342684940358
1,2,2.759391804788293,2.865189477591552,4.268881226133394,8.504367027815178,7.020633621175463,1.9857089404035626,1.4342054126025372,1.8348072647786524
1,2,2.2718129909181117,2.5161235001543263,4.056244071513287,8.80694823269252,7.0818232258276455,1.8408540815943817,1.452268506739477,1.7462456085742155
1,2,2.5160668090747076,2.754610964853087,4.270114024478592,8.552563895260608,8.392551875778649,1.6133231195889959,1.349902642195592,1.859217802719277
1,2,2.8002877317041293,2.6615865673946697,3.715894733297792,6.754748796039124,8.240693600990824,1.674419166265575,1.3928795012831454,1.682263690319645
1,2,2.484592762948443,2.860010494924304,3.9278192653160082,7.6214006131208105,7.142565963468058,1.4241310230850663,1.5124996109063131,1.8337675567078953
1,2,2.2754679046939374,2.670662186170908,3.585358398202336,7.049556111745762,5.600362044069555,1.606621707972261,1.3703310670905313,1.492119158702614
1,2,2.3914946421284884,2.721195822225794,3.7956447927386474,7.351671964016823,5.894815322024673,1.8241422370114633,1.3983796631635024,1.7160195531751807
1,2,2.5335083399965264,2.5924354447969007,3.656111720109247,7.479184582804502,5.977406269546047,1.8539392385550901,1.6087657223506622,1.7555646359644959
1,2,2.4730528387380613,2.6117317767687855,3.9472531935021755,8.299170381965851,6.871625703810291,2.0913702294401335,1.701565841858865,1.8782706459091267
1,2,2.5495660844223744,2.68476374493692,4.073941956934432,8.22978888323071,6.421922689776874,2.1117933154933617,1.7194899004717084,1.9372452834361849
1,2,2.5938125888786,2.6302038852979956,3.824203934386252,8.730066684600551,6.574572927052012,2.218601841464094,1.575280696599622,1.8007069943253908
1,2,3.0072220867180803,3.0110536524682057,4.215345840943854,7.311862822101521,6.287242667354392,2.4069350069780526,1.6932128455762487,2.051855834678072
1,2,2.2887090600078115,2.413487522680347,3.8871398537471213,7.371554520909078,6.042264062501764,2.1932852710942865,1.8079907935298611,1.7396621061295738
1,2,2.3774976901127594,2.252315386601956,4.0309513632723,7.738471568751483,5.207071433355996,2.219426368381745,1.8972612344767232,1.713498794428972
1,2,2.43323738694485,2.659998339081869,4.31096872078866,8.864441029126855,5.346359786132642,2.3884845078554973,1.7798332444450475,1.9888932462293059
1,2,2.133180807451438,2.6941604826693974,4.222290373205744,8.384091943866764,5.824515094908359,2.217311267184198,1.869659023646709,1.6733669672291047
1,2,2.219584696557038,2.6093688232814625,3.8703429393224735,8.668487118476369,5.212869844280149,2.466297950390791,2.0406886422085435,1.8645363326818165
1,2,2.3105121660229475,2.774017211951398,3.9455944066082984,8.379765042579086,5.257127108765987,2.564592777731666,2.0055979789566734,1.695923387971551
1,2,2.559740191722879,2.9849966550341027,4.616636182864718,9.801784892283276,4.617368452773094,2.8530097338031415,2.0641692323219534,2.0817165244802096
1,2,2.448784605151793,2.48606716800111,4.280125218719448,8.612406419639692,5.2855317289086345,3.1523104296325646,2.067468484637914,1.6290916982667987
1,2,2.4046947836897172,2.2008439167870137,4.293178152031576,8.54947699859848,5.901193672952222,3.055905973525926,1.9496039294394325,1.906482193569732
1,2,2.1333995787890783,2.3616882937332635,4.532345248562798,9.436543773423889,5.758016152056164,2.8733443049951433,1.9299654994752142,1.7768439933273499
1,2,2.0638902370324956,2.094393168892372,4.173572148126657,10.53955618885301,5.357679987449523,2.8123574799837256,1.8917339409739964,1.7757465429867925
1,2,2.039126624560077,2.0718104572787754,4.193545258992902,9.253281539197655,5.772799216565086,3.0202460694014603,1.8127703490751599,1.8152853684760268
1,2,1.908419313296427,2.12196068062814,4.151733055865174,9.181455908269825,5.924937669626193,2.9481288942510657,1.8205982584808278,1.5309673303390294
1,2,1.8627458516331092,2.2870897183578984,4.001747963981037,8.757718911925512,6.078692285695828,3.099728924513453,1.770435053350086,1.6059242777552019
1,2,2.098521610287107,2.2747283688112745,4.187779981529323,9.267426801921076,6.0839583080092705,2.5749082478975085,1.7796628279722078,1.6485186072577214
1,2,2.196242977256763,2.2463805344290946,4.189041747054622,10.411192675600377,6.024479308062825,2.9437096177344233,2.078187708752648,1.8694375212200625
1,2,2.3692755251866093,2.4316227546339295,4.446426752584936,10.477314778170244,7.042983195128901,2.884186705414388,2.24399635306703,2.0411174747416405
1,2,2.5850774512538504,2.3920268213433586,4.932459807343786,11.029830856499816,6.236962863220955,2.7415523514791125,2.056977592798544,2.249108191973429
1,2,2.6608861122493273,2.594967092110627,4.725414459076998,10.49803247972458,5.521698868521563,2.697325858274161,2.1677903216944423,2.2281378303741683
1,2,2.820739484277704,2.806196141882733,5.24905717297079,9.815449563820785,5.540292559163676,2.833447955323758,2.223550714936513,2.2705351930673445
1,2,3.1334221030273324,2.7926963441726853,5.178082928201475,9.299747656032068,5.107043045689565,2.52469818621341,1.941393195510544,2.216259589833894
1,2,3.1655182385688203,2.732105235275927,5.111344792907542,8.942091486095173,6.016492233847508,2.6404424616004962,2.285621023436747,2.0653043016939496
1,2,3.2533352743674375,2.952717212412309,5.232963230333434,9.662834034842831,5.601798345168691,2.4608085456801536,1.977244137051728,2.3832709013060773
1,2,2.911035750732299,2.8131586722322535,4.414107703792679,8.36058814156565,5.368297483853748,2.4725186582267065,2.105705341263794,2.2940898009349344
1,2,2.882229750024938,2.5813931931854697,5.028016622852541,8.881365291980396,5.831137543845162,2.542814548339696,2.182495176180291,2.189302786064582
1,2,2.8918447495181696,2.6318639507964896,4.7647983689199505,8.325458567631776,6.379801013868808,2.737873235273769,2.056205750043402,2.3910609854725022
1,2,2.6299936368362538,2.6093100360378596,4.450533944216726,7.770332614121511,6.231910933076465,3.015583036182357,1.7878342011351218,2.1576565630875604
1,2,2.6611330757160814,2.721480036908254,4.683122330085002,8.463937551002736,6.724706366692439,2.9275361682736567,1.7688905712575258,2.328707627932367
1,2,2.5241525687905804,2.4412113383241185,3.881288466730367,7.244378887682552,6.710624725252587,2.783962813010508,1.6867187441225704,1.7968080686784873
1,2,2.552856715647792,2.3717570898479963,3.9435124316017194,7.020445099574332,7.199000799693055,2.661417179345925,1.95877814292309,1.7043422901817444
1,2,2.5133531018420774,2.174206524277007,3.9389771083973226,6.358545462591968,6.7190204293821365,2.049261876713084,2.00318399427763,1.564484837161209
1,2,2.4423176054560116,2.311722561129011,3.8765611584357753,6.339959022498348,6.8958745887289,1.9426793241371632,1.7252733919613317,1.5979640977533842
1,2,2.5176028651976523,2.462225271171031,3.38019296582903,6.6922236830117905,6.467751153746832,2.0709560748401246,1.7088931855927454,1.6043952930141958
1,2,2.388284463089025,2.45831514078245,3.3221207471150453,6.5564067449606505,6.469974511884487,2.054318101777643,1.6467025239170048,1.473349086819643
1,2,2.4336417917111537,2.6401283510410423,3.6869079937006126,7.442287215635171,7.138355117238262,2.150963150397091,1.72139158915047,1.367598830958882
1,2,2.474955400995603,2.3432043976057915,2.935058297817661,5.9623011958333585,6.744523968545736,2.132388107339672,1.868496193399622,1.5148136513098338
1,2,2.765318899865524,2.275989197795894,3.1733712483874696,6.14282828155662,6.771974172175436,2.300861334808588,1.8641535947436798,1.5937621345106974
1,2,2.677200594552851,2.1331877282194966,3.5889513169972314,6.259371081359228,7.605927154357875,2.304662573486364,1.9639749226740664,1.6676941182081029
1,2,2.7281149076283886,2.2364520632342875,3.447202840071129,5.977419705789251,6.928359387269173,2.3549898147311943,1.9861949945261297,1.7063918250778731
1,2,2.7823794265188697,2.2534583128168664,3.6634153905082014,6.169681604063246,6.999717331756438,2.1304044209599446,2.0972845518150534,1.7435107560976377
1,2,2.856685907604562,2.2841045752740876,3.6369330243936675,6.51784237908292,7.149682651344196,2.2482648878419553,2.258778195986556,1.6875148829085043
1,2,2.8603723705742277,2.596535441972338,3.799844570853962,6.324875371378123,7.52113054819471,2.392535171968385,2.2539421077854027,1.8485638401461864
1,2,2.4399657140009117,1.757334125862443,3.3915871952746706,7.488422029575003,6.7377840656423675,2.4208145183059164,1.8658744824250442,1.7195562284620136
1,2,2.634838526337888,1.9782208720145706,3.483820506601581,7.403858004522864,7.855793896052335,2.3205532886322215,1.67420886984653,2.0040273964988993
1,2,2.970913995631147,2.278509982378143,3.7410729738770305,8.601940611793001,7.336149485883276,2.6803910872901944,1.8461657720971192,2.118320223975703
1,2,2.5143743654822606,2.28141711081307,3.185953923862428,8.450333896350177,6.5438421668264795,2.4293760932966357,2.048540043855991,1.7048403051587238
1,2,2.432544194470053,2.3881352013520347,3.646664420020273,8.781258750069407,6.475602744216737,2.3684949250921434,1.989968330512014,1.7397044307857668
1,2,2.709396055638314,2.257719731168732,3.7322534310344193,9.054809408239821,6.844695615321138,2.4009781845918234,1.6744925664899661,1.9123008385208253
1,2,2.5478250922789973,2.282329402345485,3.642101189860769,9.113857710788512,6.641375532637684,2.1942079787101414,1.9073765560143894,1.6619477345166955
1,2,2.8163249641612023,2.2769777655064467,3.5933722248859823,9.28495381546964,5.789444912276196,2.2690428271018632,1.8937801433442916,1.8639646724393872
1,2,2.6308778408852644,2.4368488037207365,3.9179122615705237,9.948993970996428,5.459353179500621,2.3584243969080876,1.9964886559602153,2.0653973216771386
1,2,2.6866167330478876,2.7129678779295174,3.7994177490528402,10.03772984688651,5.786836156798069,2.395463798812305,1.8278059642107094,1.9069040286008718
1,2,2.343880313027243,2.512683503591858,3.8532936540507006,9.563168981946399,6.110755718482432,2.659493667202856,1.7514177270948612,1.6207628272778627
1,2,2.528735449573577,2.68059699460337,3.603273870888273,8.918767102398087,6.722374912072615,2.357872046653316,1.898018111884753,1.570676535864101
1,2,2.7426453480922373,2.6637436573196274,4.025074520655905,8.91289876220771,6.363379990828453,2.453908999857408,1.677687186991847,1.698753711928155
1,2,2.7430374124289916,2.6684121068869664,4.049572325061429,9.43913259217857,6.973261103242417,2.6362245970420615,1.8128604552881056,1.668651607417614
1,2,2.517327545975988,2.6991685315872576,4.0628893222479165,9.025196788728373,7.5486743095446185,2.495360307966856,1.5848263482058387,1.4985188140652406
1,2,2.6732113293501953,2.5289531041398194,3.9721397185209955,9.38190167553639,8.339457015648357,2.51210817882089,1.6382131147532364,1.617256417990845
1,2,2.6578407107874025,2.552541551443244,3.8692146689844154,9.21152524888176,6.979315447898789,2.7855354642149344,1.5568830512163736,1.8090977383636764
1,2,2.7248373082040094,2.9070136727619293,4.166771141557019,9.317672446380657,7.209450856880153,2.4490263266009626,1.4783000537041273,1.61503414769254
1,2,2.8126501275467497,2.977974411762821,4.092211898261592,8.000500453718482,6.544440705916973,2.4283881134271725,1.5671900861615522,1.7832849261716888
1,2,2.7906148218144136,2.730069285152063,3.4143461740695846,7.593395511624976,6.865257255989566,2.6776235652964244,1.321970222686569,1.6088130644478438
1,2,2.881424952420767,2.757328338832365,3.741180453829359,7.909474265177931,7.350720672586287,2.827380348521357,1.3883987406360747,1.4188501130483893
1,2,2.359881830602897,2.558090407805855,3.189072471216763,7.705577254002922,6.909351081808897,2.6943130753483673,1.3332045491151328,1.4057562946634294
1,2,2.4693426680635664,2.7007268770832913,3.470304819519109,6.806185629120277,6.817218694454031,2.567018416669634,1.2621967256571618,1.4706165430121656
1,2,2.5185587536080214,2.8410759566047123,3.657094164738062,7.119653529670032,6.814327572769969,2.727482072277569,1.361141394084075,1.605859596782956
1,2,2.603174848234821,2.762994188405689,3.7539698801588233,7.345529232419022,7.003026158535139,2.1608429219158314,1.412890850014958,1.3872702576707434
1,2,2.368305584147795,2.6350030980442227,3.8080090810629184,7.722256578373315,8.160760073695304,2.096851733694661,1.4649154100205544,1.5979696688591674
1,2,2.478282324205062,2.655031242406851,3.967957920469864,7.3924706068170245,7.442539276319779,2.1056667051694222,1.5364544133017135,1.599788699480913
1,2,2.6400186857995736,2.5042176228895734,4.088124676157131,7.125527019718249,8.533512433680146,2.115632031739941,1.6993067505580217,1.7624050499722497
1,2,2.921531030798637,2.623960243311489,4.086829971053057,8.016610718865198,7.2282725079329735,2.2910493580558238,1.7592574095620097,1.926453387121663
1,2,3.106072834727788,2.9187202592832535,4.153229652940975,8.402469223364962,6.98551880751058,2.2386065680166016,1.5942411585208385,1.8256810851073597
1,2,2.9250698423914234,2.797171423076142,4.426487508000055,8.913318444333337,6.761201832168428,2.4268730254032804,1.4384558376767251,1.8900557049866944
1,2,2.734733102888659,2.2817037529628696,3.8015044743227917,8.289779328587151,6.730545984623371,2.4923543836429527,1.5052857357202458,1.7443880284819198
1,2,2.2518683285004393,2.0450422571027853,3.788368398029524,7.620983980826181,6.937474621852092,2.299486764497351,1.637895463542361,1.7731697252663225
1,2,2.1722058372364486,2.01532220491058,3.695384700084506,7.227315008116371,7.169237069367815,2.3221615665798274,1.6770321189791608,1.8859866095822024
1,2,2.22312677052432,2.0568427671548846,3.5998318189489105,7.560905480088258,7.318420434425502,2.4014448734552265,1.6325082549968422,1.8933592493162725
1,2,2.4241542804714316,2.020788474891954,3.8946040386253875,8.26593421190029,7.6610199536661305,2.5742494328411776,1.6323524386672972,1.8852453285552193
1,2,2.2688074998198373,2.014629501642699,3.6406593885672875,7.956191205944628,7.971649356266162,2.2662954511902536,1.7942666260655504,1.8240360257718031
1,2,2.4235762451166445,2.103194406199184,3.366792790615925,8.138461472950414,7.0560559597701324,2.242064885207788,1.6849079230937551,1.9647973622336223
1,2,2.462010571592669,2.0418648197313143,3.8382821960516935,8.145039814926278,7.285551444719351,2.2857971275663447,1.6734778200541833,1.8200753189298187
1,2,2.5046782010318633,2.270572909168487,3.901009378954101,8.164950961055887,7.054585319942885,2.3103885325561118,1.760019460628597,1.9111481204238232
1,2,2.6880967875732527,2.334309136957394,3.764715512653206,8.756012664076943,6.6802825286348435,2.517059616496412,1.668733083476867,1.9141595480496991
1,2,2.6960580441721205,2.442044762173574,3.4590423703189104,7.952107426701656,7.536399796649837,2.652031221503312,1.6781437813034628,2.106406368049633
1,2,2.46373746580295,2.4727508010215122,3.3449796364936537,7.760629276539528,7.226309810046674,2.856399492780039,1.6849854405420586,1.9905865834457028
1,2,2.698811452355096,2.8117943025929035,3.4255160728317393,7.652273307609096,7.7920664835851055,2.6655395594466733,1.7155569635699375,1.9051349439697873
1,2,2.6183618133812914,2.5703240493008415,2.8360827016192993,6.542499648829994,7.485980100753517,2.50034816594241,1.8003506567324465,1.8087619113181996
1,2,2.5113126061321926,2.3716224757406144,2.703840164385592,7.537212299896724,7.792962967351503,2.443929769697686,1.9736212441192256,2.3002405576400236
1,2,2.2535238171837966,2.2486515467867783,2.249998915948003,7.281088871682586,7.959528110761485,2.483951644346011,1.9635911241085158,2.3120732497499588
1,2,2.3641660686802326,2.4934640498590213,2.590694615128899,7.452967980796052,8.972320320856612,2.501814542396976,2.209869249352881,2.2316479331100787
1,2,2.332147377900511,2.304656133751672,2.6499505884702255,6.751428699889957,7.174935181164808,2.2432280068099657,1.9803919329037472,2.2031935289196554
1,2,2.41885029735363,2.3799986910456803,2.149726308200939,6.559562145765488,5.890840996903259,2.317717873665468,1.8938915840873263,1.9974791434637837
1,2,2.479950944194263,2.8513545378652605,2.229192087345821,7.458548231062516,5.667533422278339,2.1309174819093943,2.0597337279601633,2.053844691698449
1,2,2.1967584430611207,2.8603845831307395,2.308438398684654,8.448581829735865,6.0109064737775455,2.3363697364598117,2.03876302601736,1.715858946374017
1,2,2.1780103528503534,2.6623202706689337,2.2805715455678435,7.430778735183885,6.281056268940456,2.2546045055833814,1.9893431772433625,1.6494471027981235
1,2,2.2511891050055794,2.878739872459767,2.530761177256187,8.490606002146151,6.959775904237113,2.327020869384704,1.876288439011276,1.8395281719913914
1,2,2.2908225516255496,2.9685648125320188,2.682785499894547,7.918701419572717,7.53907710698111,2.16206104313281,1.81889118585147,1.7057102409742253
1,2,2.224987607633755,2.9392278193488712,2.86707563488366,7.643040908841359,6.438501370060664,2.0716546456720257,1.7767760380806896,1.846082100172098
2,0,2.952802032813155,2.8935563048408475,4.613605225834028,10.34229476044347,10.257412522697281,2.883285779364807,1.6883153776520972,2.042434563265414
2,0,3.108458662159179,2.9792668799903574,4.452191705242622,10.33581094661558,13.02575430824645,2.781001703596969,1.9709969074314888,2.3546799708884
2,0,3.2082186112146522,3.378525120061873,4.630348720765863,9.670947688263825,13.761017849230187,2.439877300578528,1.8671831626873912,2.3635815123753883
2,0,3.4404179388218434,3.2090562998882293,4.358498539320962,8.888715878889437,13.534413003476523,2.5222208427392245,1.6965992779000392,2.520682984547939
2,0,3.2992968541551044,3.3847221194667414,4.756822076051017,8.818359874921677,14.691607859640659,2.972099909373875,1.6574508414811435,2.711271848633253
2,0,3.588291079043531,3.311912281735339,5.056845037052665,9.679353368338523,16.387226886945943,2.876718432040719,2.154530585001177,2.5412915764451727
2,0,3.6705132522718777,3.2153309807616126,4.964091516096597,10.307100491355294,18.08030284737532,2.9507335288146237,1.9809627172512498,2.3338700236646726
2,0,3.39449593952109,2.9790251350255272,4.994903694106937,8.956019313047088,12.750657205314846,3.0618569225121814,1.9799382825682257,2.177877104691435
2,0,3.1334572190347765,2.5039907798805547,4.622108627956089,8.871025890600713,12.37638021715368,2.8091849078279982,1.8947335602490973,2.087211485828464
2,0,2.7772304959503646,2.4537775346286,4.645504522611252,8.930798907222904,13.330208823412471,3.254546754770911,1.812651614795333,1.887179719063654
2,0,2.983169098638972,2.665850167673728,4.862280075741142,9.525006009920958,14.226809837169943,3.30147550493698,1.5023619266628134,1.854001119117813
2,0,3.1144283268121384,2.7078801012026914,4.847658248920056,7.784107915557364,14.364129034164616,3.156813610486061,1.476898918579499,1.9213172123560558
2,0,3.231475093310791,2.8040503077767385,4.707433878201331,7.825477797838226,14.0109127737326,2.7845325530911538,1.673768944875226,2.1030533741621444
2,0,3.2961449141440124,3.243508610989051,5.122093388769013,7.532545201025393,14.844582621034013,2.765774810138924,1.6442298610132262,2.308952514753177
2,0,2.945591472945395,2.613874701172727,4.897256371023817,7.820809355882825,12.248783002236687,2.6731617486666233,1.570904645349946,2.4994210843468707
2,0,2.835965321541602,2.9530210511334323,4.9284294871007965,8.058014050548374,12.512159812100847,2.373137374199912,1.8677384115994815,2.7185128333596436
2,0,2.861637459072368,2.757065143858428,5.525647993347958,8.761735816772827,13.069228429112949,2.291738222315731,1.9696572488565842,2.5835554689224005
2,0,2.979724256203726,3.0261272901323077,5.48102569355818,9.151388795314395,12.361573167348817,2.5428891691438578,1.822355890795461,2.5201873075667436
2,0,3.1676752616377164,3.023848941122303,5.3896222000904395,9.069290922668166,12.481474166039508,2.3669981057770975,1.9048248357599609,2.635013401288164
2,0,3.4492478435044984,3.2237776668201596,5.822831584912899,9.581517701893903,11.017771066249143,2.588290753428999,1.7288341625419166,2.829540830112732
2,0,3.112032305070635,2.9174043794037514,4.870041132798288,9.28495514367017,12.031227427616374,2.692859651138269,1.7967699155237198,2.447459469382315
2,0,2.945441380013186,2.710740738561081,4.90315824634147,8.828998317804455,12.575939942602707,2.712279552633603,1.8833265078284847,2.504003333811951
2,0,3.213935297464197,2.9291586077439207,4.713254864956999,9.5402933622335,11.588238477427682,2.6636572832049277,1.8760757804864574,2.6220836946188673
2,0,3.3547522039979603,3.014710804519766,4.715813823635745,8.51555137385273,11.02427269079481,2.654423253909812,1.9786116705132197,2.2330660167989467
2,0,3.4424212482815872,3.4018989445386945,5.196294386117145,9.236031565157633,11.491437235384089,3.0057385910970513,1.9879391488979137,2.4021184569221004
2,0,3.3408194137542795,3.3375699056324857,5.498697776558534,8.799650392507935,12.076668810918504,2.709579826160225,2.0655086014060036,2.085411125497441
2,0,3.4897060596042686,3.291923330686928,5.098905524145357,9.178076022513629,12.18010466708411,2.958715828065513,1.9764407482012085,2.344981155291018
2,0,3.57737802346008,3.5964355899803726,5.702001230083137,8.554999242891013,12.658626307249376,2.854586339486604,1.9462928914474245,2.26544208901632
2,0,3.6021129799726768,3.455755456698727,5.817641892516586,8.525183115410815,14.037963023707785,2.8384971183640775,2.000314244235213,2.1144468347934997
2,0,3.445397037725209,3.705721953062585,4.968148947122354,8.225812483413556,13.400313420692177,2.8468860522886965,2.07840064565321,2.1320258522374798
2,0,3.4938596416325707,3.5239349758199685,5.348410876269736,9.282209137109442,9.89777217217699,2.5418286444676887,2.094484074546177,2.1694795978499366
2,0,3.7360925482540366,3.892917482081959,5.2327212438325965,9.320999092323586,10.406563820188753,2.6258320012796106,2.3055487311157337,2.4126368631306527
2,0,3.3750636351609744,3.4601629841850903,4.946868215021366,10.134856484011797,10.824189800880982,2.8274652756720338,2.0754255134549564,2.069283685864368
2,0,3.4361537681177143,3.4840713861707586,5.123430514623883,9.837068426395305,11.701828244837197,2.7583838581291915,1.9670861730285605,2.253953933431971
2,0,3.3119378965696065,3.4685880226803967,5.187011061976649,9.75114258025992,11.951222738087091,2.547399994688693,2.103089791207586,2.5253111472871987
2,0,3.7146894089253246,3.5179402562514683,5.315179502230107,10.030409248743895,12.952736279513799,2.6918269232102765,2.211231204264586,2.3106612871555523
2,0,3.916410994610687,3.544256355714819,5.129652351591828,10.399540140779315,13.748336761831398,2.819416722750883,2.222311167515351,2.2954486569374155
2,0,3.7889945068116933,3.1788997365834852,5.018804668099633,10.286399157487143,14.081108137056521,2.8685858005386216,2.112844007409939,2.3577642389446027
2,0,3.7081720439215458,2.7450866851443037,4.864292163934306,10.055592693124852,10.86593499460272,2.955489354306951,1.920274034236839,2.3664089936432853
2,0,3.388811257709142,2.9378509979469363,4.785987737831815,10.031044145220756,11.882837400695866,3.2609590187539856,1.9437023048501094,2.011739655840686
2,0,3.1550890049942626,2.6546314875332233,4.4634061644811425,9.429379311272688,12.565510270516205,3.2560183209300693,2.059815072413063,2.2005156447188234
2,0,3.369091067344783,2.6726004406324058,4.417569027443405,9.786191913605055,12.773802813055786,3.2538642408630842,2.2745509117728013,2.2875703652719857
2,0,3.158293786193704,2.665135512700275,3.9711594570432815,9.471626572834632,13.360291201135452,3.065416454684136,2.042082861502385,2.5881977309805504
2,0,3.275670266941374,2.867297606798772,4.556220032741774,9.745127154666427,13.614987323279374,3.0056864407879393,2.130205773387195,2.2590601887949684
2,0,3.260885104427606,2.7578753771068123,4.344322545520143,9.956687471617276,13.440126390823735,3.0970076355041156,2.3465387251657894,2.2305544874337926
2,0,2.854592440409427,2.46198962312329,3.764295811915083,8.160560158651785,13.775297742262195,2.603419652639296,1.8834846295281467,2.005826371588107
2,0,3.0734046464980334,2.6120460437397024,3.8760441333798803,8.747653927326947,14.087591504795215,2.50609291131086,1.8640230101201904,2.0371370899447228
2,0,3.3012352573819195,2.8046768201607497,4.095059890943964,9.552381183669109,15.082100713702378,2.7116309370613316,1.8612338528369248,2.1428186440714647
2,0,3.3487613731307335,2.7725988260791916,3.458835441662942,10.160932042119965,14.428508860530323,2.7792376416627924,1.901252805261112,2.48774955787934
2,0,2.6074159751505865,2.791080662736703,3.6418833775288677,6.836979490112685,11.467365209781294,2.162997370387391,1.835542778213835,2.218810590589855
2,0,2.7809180201249752,2.6880508701799966,3.3158112579193064,7.45169859058161,11.633543364138667,2.302125742469786,1.951740264659449,2.203413250843836
2,0,2.831312468486561,2.5678278958685032,3.27786692465501,7.5180584665659485,11.466862835539565,2.117614177259271,1.9337277647793758,2.1886723771069607
2,0,2.668316816318667,2.672952419788065,3.666077505922824,7.834903827741259,13.066581461494383,2.057940238973259,1.9950211717777548,2.2465437922542164
2,0,2.86107316520955,2.575267487521553,3.301972343029838,7.443016602008182,12.980011847061146,2.225773368975539,1.9955994780449222,1.9742751640085991
2,0,2.5932172916610354,2.544453305056782,3.1352482639618513,7.742128861221504,12.02994400038043,2.3597281675900375,1.9773640793591807,1.956075242812758
2,0,2.7206211717720645,2.6721530269116336,3.236400930131226,7.053004472839528,13.572203700430967,2.537361740079771,2.116320486857414,2.116811995757029
2,0,2.574266161143128,2.782959205145866,3.54563794003716,7.455905060701291,13.653427197429302,2.5991619060504143,1.783467321204493,2.1818961295170745
2,0,2.512366119923839,2.9829042011509346,3.342315074350948,7.621285782939933,11.940905902372966,2.376083128791566,1.8286065873518635,2.1273801499454366
2,0,2.53553445290275,2.9961964754516073,3.4840856058874823,8.228815424751943,11.592834884598666,2.4421220329175424,1.884181767793547,2.192486830312993
2,0,2.659596069249252,2.874412289218173,3.5325245230850553,8.047892019851401,11.458788400110912,2.4428001671687323,1.9023818600074383,1.9200388422475294
2,0,2.6600899801763194,2.7248922277173038,3.6672087586837714,8.801899934909386,11.70802465137755,2.5325297728458946,1.8916357021982868,1.8910011187684002
2,0,2.8769566707131737,2.9326743001505466,3.955455640770142,8.924129807845514,11.515801818695357,2.3682137699915677,1.903889400951299,1.9322518772889035
2,0,3.005109175794224,2.9448651202658254,3.7792430848220744,8.389380641288554,12.345717984480446,2.304673240474186,2.049785220083499,2.105191798884027
2,0,2.563706179000955,2.6249280758471794,3.7078359018825973,9.058973349533716,12.963565779695651,2.1529541793507065,1.7150119324531667,1.7832630681761057
2,0,2.4959760979337693,2.697599738899287,3.833690551769866,8.990739620359987,13.224931209173862,2.332997672704571,1.7467573732057484,1.889609042916733
2,0,2.5527260101890885,2.335183881258064,4.055495641330994,7.222775170846088,13.72377876015258,2.678970212197946,1.6675964659751,2.09923753731892
2,0,2.6172494553908003,2.323322450165836,3.6789367479397703,7.930530876573476,14.630192085915795,2.865304266193992,1.815907122438809,2.2650215297457112
2,0,2.8055431978453664,2.5406309347638145,3.668398017384809,8.61339053078863,15.243390939494805,2.9900744361225327,1.709308317584995,2.4378674009509114
2,0,2.7706815464578076,2.4854450073740133,3.7584409901366835,8.60468406941792,15.76693694874376,2.904848197752943,1.7738056116865564,2.5456853696935973
2,0,2.8463651400569594,2.3452897660684218,4.059642263938893,8.752268415423238,16.942712901485066,3.11670923017371,1.9454845543452253,2.4745683247121253
2,0,2.8777487351779745,2.376367637238265,4.082406226020848,8.138001277833315,18.676694117228678,3.1454677143350382,1.9309067449696586,2.2616333679268235
2,0,2.752168017297433,2.555675545609771,4.481781592262256,8.124685890088514,17.124670469965455,3.1298465396986677,1.9240048337167082,2.128261630640152
2,0,2.6817145717979414,2.746068007769638,3.9180901918357933,7.171987864974846,11.931254427451856,2.7496479596070986,1.8569849403998646,2.4366006034009198
2,0,2.690284505960969,2.7476000243993504,4.217271058572743,7.953921505276441,12.296859794848235,2.6660276172401542,1.6544955451398204,2.332117392163971
2,0,2.928415915509617,3.220183498744419,4.5411945412885135,8.021479751732553,14.055636744142738,2.5588594748248212,1.6646068286893438,2.1769320789197546
2,0,2.891836444144298,3.1311934731563413,4.640833781720599,8.332652318087757,13.447915210264135,2.5355851164025043,1.6779475910643893,2.1345732148755436
2,0,2.91954141706641,3.455520475595532,4.859513974314184,8.565368566285109,11.554674059666837,2.226423691775872,1.7482596227924132,2.076072861068948
2,0,3.0502981650222556,3.4385769879671857,4.710840607347486,8.633924749712637,11.69348374285424,2.4062936373771886,1.6311448207203951,2.082076439289999
2,0,3.054688084922794,3.421766642683949,4.41202824609907,7.430051686632432,11.162850538598361,2.6433443897954834,1.7219685049881674,2.160704396841282
2,0,3.425865286568747,3.5294809593503373,4.8185054055997645,7.8567440443985195,12.821992696373249,2.925921122796663,1.7639195259458476,2.1484427296232718
2,0,3.4973762130336152,3.64661091666135,4.8290897628468725,7.949490741831728,12.328419331496164,2.842718167892743,1.7466910907240603,2.1126908638401476
2,0,3.7465729775815673,3.3357062597947094,5.054709437956657,7.977257337379554,11.55444439632896,2.7941544934159883,1.8129295443716487,2.05085618685933
2,0,3.710833643443572,3.3314095710449645,4.9317792519401245,7.859802350117047,12.695355231957679,2.6130482941832125,1.7814682693518749,2.127747329661172
2,0,3.670768155159375,3.2603569503649483,5.110578660099607,7.5345176495699295,10.285901863427318,2.754248054564253,1.5774900324461358,2.090489835036297
2,0,3.2791562609789784,2.865401277598524,4.264727682138956,6.944133059410532,10.515059095902854,2.936986871133098,1.5104335355622756,2.057529558028295
2,0,3.4469865110882463,2.952487881609714,4.356744061793409,7.532443287687237,10.864735816636992,3.0235245432125066,1.6481340433278602,1.9942028687458235
2,0,3.435428408090759,3.0640833267660947,4.397803899567471,7.0376225848801,10.865486106430087,2.740353721896979,1.5721668767355297,2.0531159701571995
2,0,3.493875480344733,3.232215269250249,4.569027722279551,7.199741677841474,11.762426116500441,2.867272460300424,1.6836775902053103,2.24256921748155
2,0,3.6810531521965077,3.3847525892527015,4.779175399304395,7.632374722153646,12.300189102405698,2.8617516405105623,1.818562354664583,2.372515310960556
2,0,3.3185985303378502,3.406544147307402,4.573322519789306,7.581776697945049,13.753479891189066,2.9663862898260294,1.9750676204124495,2.4897721483907054
2,0,3.4807857899477925,3.489780973352663,4.690915658247497,7.436435718703378,13.079157927333853,3.02313065466096,2.0558083276587706,2.4619263533036873
2,0,3.0316159845804904,3.297513830891728,4.44591985269386,7.715259859195715,12.819331299612658,2.7902608897500074,1.9811709961082968,2.334716937534431
2,0,3.0175505019314057,3.333527164854429,4.3727285419030215,7.654354899696647,13.2408409524484,3.102823148574894,2.152223169118632,2.1352429024133177
2,0,3.1066974946182553,3.346441743379319,4.456691819287036,8.342930420381482,14.158965075026831,2.7911884992212546,2.0902810060902555,2.228968490223514
2,0,3.235319251503699,3.5620536051052962,4.460176535918604,7.546969854283848,13.336136776551598,2.679259904784023,1.95393929896073,2.4895556524847673
2,0,3.0689345552471496,3.809180365630667,4.330125506510258,8.00718985842313,12.445484918379373,2.5742689345079275,1.918532211846037,2.326856378120016
2,0,2.938270746630267,3.5695058978499086,4.419241207998413,9.068843161677224,11.784479078552858,2.480090120659331,1.945602528589173,2.073362958250815
2,0,2.821327452864367,3.661374178745952,4.721630134751041,7.846174709607433,10.857503816620724,2.255142886055524,1.9490729333051322,2.0260640624664434
2,0,3.008741355103746,3.501193095536789,4.6732222282576545,7.986897482687286,12.079688304738669,2.4031897462033904,1.8461792900589757,1.9517479048135578
2,0,2.9729440486347607,3.4061511858685476,4.436187643715845,7.51783101236957,13.055564454192579,2.6799719959333514,1.8361907726739548,2.041689324821383
2,0,3.160157737874977,3.53852386933639,4.95087606452529,7.489082401896265,12.364715123707589,3.0161228590957108,1.8891326991712933,1.986602417659099
2,0,3.119373575067969,3.671187954920429,4.967382835247199,8.71645067640463,12.628914202450243,2.509657660105171,1.8583867705258819,2.16880115242203
2,0,2.932852927120274,3.496064074156618,5.055359628318332,9.372452283599452,12.858168523916147,2.5815365140695223,1.8123791325808,1.841778594269831
2,0,3.1883293202149305,3.5136964226279512,5.366868234678136,9.90975775035895,13.17364776721572,2.851000553523794,1.9081747980231656,1.998204636759727
2,0,3.1711192700067676,3.617955974397751,5.775098135536425,10.265564964481396,15.45977463583768,2.6054921126261994,1.9136684835780982,2.1980598863983425
2,0,3.4685310300714534,3.530602431703849,5.8193454981791914,10.993654882156289,14.301486698476355,2.4815952298845225,2.158677292811747,2.4105666675526694
2,0,3.6961264880021543,3.4790907189049776,5.4500157199589125,10.644105409117095,14.685599484428042,2.5124378068388706,1.7432817006592793,2.2933298457749323
2,0,3.037492828575368,2.7013482321735607,4.594934134908574,10.296775791156946,15.205775436253372,2.7955433429239256,1.8232981181030798,2.5290138477685495
2,0,3.17302161144479,3.092453247572238,4.975349520463461,9.885782337381901,17.317574071440053,2.509614192669744,2.1494965913822033,2.5223202278540904
2,0,3.0697533107461554,3.2002232799984354,4.742875151514716,10.105185623651993,14.171329960381545,2.8096776000610717,2.144698944744443,2.5157780897065143
2,0,3.031367874156872,3.3094004160105794,4.929261801985753,9.349439613559332,15.877881166890637,2.663362563638483,2.152177673183716,2.9438561422301524
2,0,3.424308571645793,3.1062979576774024,5.1070595266388645,11.058871597737957,17.087881440428227,3.0241521914277616,1.7727125498660266,2.8431352740066784
2,0,3.5542589409899885,3.2101266796048433,5.27163579050819,10.083732351372788,17.241832844291707,3.067850670242747,1.8068659213968834,2.7412205960006086
2,0,3.6012271831732185,2.8830923557253896,4.875527813183455,8.589317174332308,12.954583693264095,2.587078185656326,1.6165443904148569,2.54158423897145
2,0,3.4198552430883185,3.1819855286765337,4.464404226603524,7.9383821843975415,14.594755314709644,2.7216690563718404,1.9226380575139321,2.4187541286256513
2,0,3.773893622264225,3.4211788103531813,4.650847166707115,8.25962603184938,13.571592212676226,2.8317218115352016,2.007523323934071,2.8812935380425113
2,0,3.6176193323323935,3.3311586778759597,4.854782958592342,8.75191438860637,13.058053751766233,2.424055743599336,2.1287628576148645,2.473076962290727
2,0,3.9895177538248876,3.3339090851392026,5.053603941350796,8.337438891083888,11.783475168839765,2.6332874097228807,2.3317122106997012,2.5022640896764674
2,0,3.9592946980258414,3.4309321686089707,5.638720079664198,8.409494056779701,13.045549549815407,2.7979684103923876,2.25773449563183,2.4751948095978498
2,0,3.978375788326266,3.5886455248789924,5.220423520614012,9.183098642433679,13.709087112567845,2.581981792592231,2.0933614043269944,2.8265176556284275
2,0,3.6877536623592326,3.2496636642083128,4.588643916790357,8.615759659624318,11.968891335158041,2.795485908136704,2.1803509999774087,2.3568806039783685
2,0,3.8588070282835334,3.8566598856605188,4.672217327190416,9.003734687207,14.028684729932065,2.829307752854855,2.096938881476699,2.5190898491016105
2,0,4.193768472997715,3.999247731660123,5.301184707082794,9.838629380846903,13.823689094081091,2.871620877008554,2.1921725850710145,2.416280932078316
2,0,4.2760841315092515,4.494676232813319,5.443943781741947,9.705911025691114,12.707773328584853,3.0586232671466327,2.3704787438168036,2.664151227677163
2,0,4.74623674323019,4.64321297724487,6.236447811048782,12.094020757262472,15.167578975059126,2.927518207039862,2.5271604515746433,2.8499792141153435
2,0,4.045324052740595,4.200903913329869,5.303842973193059,10.565495633601818,18.53276313300711,2.871070499910939,2.3262102195948486,2.2373041627261805
2,0,4.089887521739476,4.279788105169244,5.65051133773282,9.87110738082094,14.174275237865883,2.6595273136984074,1.9529890929960088,2.3105603823179117
2,0,3.7985022101580106,3.6738767758216606,5.6295751249659265,10.81235808732719,13.316082697325529,2.3820633796422275,1.7819877058003806,2.239558044361212
2,0,3.881605060358652,3.987974533447958,5.63742807328077,11.303402615507453,12.824171565702114,2.439275214715208,1.9318725621170054,2.1751748790145062
2,0,3.3123714854446558,3.59160808454804,4.959984673333501,11.485857153480193,14.146794239181299,2.7631964478080526,1.975802565984745,2.3975035290309132
2,0,3.5550956322700316,3.970135148047861,5.512262274517213,12.419779973388955,14.586997807630176,2.7490677780763395,2.1327171235913083,2.4205897514568147
2,0,3.4010081215489385,3.7695375317035618,5.483466063424018,11.108221721275035,12.893062937305812,2.7930395297197204,2.1652603409615794,2.1986764971517734
2,0,3.1291806401530646,3.752963897231133,5.874710614006335,11.37930167941642,13.474205073916472,2.9533324827477494,2.283501870620861,2.1767502920613597
2,0,3.344163633357393,3.925347388509949,6.557804982601667,12.680731562763208,14.560362233984327,3.15898649881961,2.68785484582555,2.4484199578549375
2,0,2.585511517969989,2.876270101591626,5.45028704120814,10.838262546220221,15.850396609700246,2.900445004155746,2.1820713105866707,1.955752297259487
2,1,3.7607583933177215,4.248355216197816,5.2211460979271305,11.077748017856395,9.538675185015196,2.586916108486778,1.7452453825589873,2.580243414797032
2,1,3.9056517318636477,4.166421497457354,5.244127984093682,12.25720662518867,10.920052533048214,2.5745651076364635,1.8937535980978872,2.842526090516701
2,1,4.855770899948941,4.583960344409995,6.060927580287023,12.901898030212427,12.874700916251486,2.9380347118330787,2.0210566635469402,3.0453378043786694
2,1,4.296181316799677,4.080751220972116,5.869406266177724,12.98461265613821,15.821069005024887,2.785075585822386,1.8075574628731983,3.2552557324708147
2,1,3.834997187544689,4.090770813887334,5.396219494941364,12.233939812618669,13.293897002865698,2.9532024697481294,1.7204389433860843,2.9717786816611467
2,1,4.185535031376873,4.114573652273473,5.451030658864455,11.567815711274793,15.564936220824306,2.955987325331944,1.7296505806091227,2.510621983884067
2,1,4.45859314733179,4.3874239896882115,6.639374191251436,10.422720305141533,19.46146289197484,3.1878998242823315,1.7356317585951309,3.0133968346562203
2,1,4.036539068201203,4.162687393610149,6.65334408343151,9.185760881151316,15.619661904754496,2.8569911028263135,2.0884763383538565,3.45545460232839
2,1,3.9790833752816623,4.270676428907438,6.533985871041999,10.754308580059979,15.514655346405021,2.8399182777419996,1.9389005577574914,3.608408676862243
2,1,4.135782763679752,4.295932530081221,6.555341276363155,10.951821908767874,19.950488141206232,2.9588259424338346,2.572120178222162,3.0960205458443446
2,1,4.03963604453565,4.5598273777138045,6.283928617085162,11.791989168031419,12.989644989248813,3.3335472604291017,2.5332261032892065,3.176576767919353
2,1,3.9005012952364293,4.563129973388906,6.774230897041898,10.782746102922053,13.753013668380182,3.4493098104939177,2.2823528785301703,3.200348321796179
2,1,3.218103243177221,3.6309081854276757,5.29894062746583,9.546804717750062,11.887734360513392,3.3226472227841715,2.1475260937206486,2.8581860318310364
2,1,3.040278658141781,3.6087378536794774,4.97699515447992,9.792462666219,12.228029310329388,3.217286526955138,2.1156772117891776,2.974742916197291
2,1,3.491662902041196,3.5739434183529437,5.667664096589229,10.360457269997498,14.521339112361744,3.277315730862118,2.293773050175228,2.9096887402713025
2,1,3.774971084191754,3.2973696361212856,5.123622426839936,10.499566666581376,13.068345733002856,3.497600384198815,2.2083778162070558,2.7420789932983096
2,1,3.8824671347831923,3.7629256361046997,5.180902449227601,11.770035765121467,14.567831158216302,3.4822900758458424,2.364738272397483,2.752688647633101
2,1,3.6141242374867173,3.4867496832158054,4.993157354198266,10.547675300552791,11.795825382105521,3.970966335397196,2.282856773410265,2.665990117549351
2,1,3.7493311428772493,3.9879968650109094,5.562532665485284,10.153014709971362,12.160471342636123,4.26223492992791,2.4539630588003933,3.0839945847061077
2,1,3.05354090668842,3.1843679529222157,4.034078914480362,8.736997265529398,13.42223226783029,3.5854453449660046,2.0219933394354648,2.50276293906004
2,1,3.1060237851755286,3.4003492977067498,4.57685378336246,8.567774923723379,11.352532490931905,3.5583735202693982,2.0204350374539986,2.70442976474871
2,1,3.3178263013835587,3.493336650425496,4.672805218010454,9.227337944787404,12.336268077971244,3.1506719084727637,2.1688905118245403,2.326484116622946
2,1,3.3963180815926295,3.62878924231648,5.050633081017453,10.111784782452974,11.712130934730524,3.5256103485397867,2.451351820624404,2.611166797038119
2,1,3.169043605944176,2.977381037369442,4.46641809346377,9.733319002902341,12.179039748102033,3.453681331400346,2.127999391131682,2.7094547918374166
2,1,3.2566870808995962,2.8517805352260006,3.8306615966112365,8.553396787232563,12.864290631339324,3.182771104711265,2.2126881986972045,2.710631397012653
2,1,3.8227658800467053,2.66038786470994,4.522214601721379,8.663144087036414,12.186131502289477,3.2690460523124214,2.1203070981893637,2.723751995602526
2,1,3.488892194201858,2.8705761271045995,4.643083407071412,9.265215465603461,12.730987858347602,3.372995664289535,1.8969008275078045,2.4020527991069907
2,1,3.7277348937538504,3.175149707795284,4.296002133571534,9.624298548112867,12.585078038762544,3.298014600237144,2.147109463616068,2.398809610843853
2,1,3.4040839181173808,3.1611681230812296,4.435877794195963,8.828048621246888,13.201677078309215,2.9782180201686237,1.8130435907011244,2.4011443567757595
2,1,3.994856465971463,3.565732990706645,4.955855379778416,10.19879036225018,12.837940852234777,3.284502125841557,1.8303461464110309,2.928669261563655
2,1,3.6359028488609275,3.284057705791903,4.896071937292122,10.258037239803176,12.6066044672302,3.236021436668612,2.039972938785032,2.6738242420532568
2,1,3.9089677054777403,3.5284401428476664,5.0317754230673595,9.844534950473445,14.638147052173622,3.719067730010998,2.112463198300312,2.669288694160086
2,1,3.9412000666999316,3.6225385652307134,5.372426119420704,10.396154107801307,11.062061875186497,3.5667012860728122,2.2485039099995587,2.80388747511162
2,1,3.1403168065073404,2.903360903534569,4.400933995191764,9.68455910911604,9.57156804587801,3.525863066770233,2.125296873598339,2.5672368545767394
2,1,3.1649099276325696,3.2132415948780984,4.7318770296854025,10.022163600588305,11.2721502613008,3.127571056169168,2.1696971888098227,2.9478520517445093
2,1,3.324090300333964,3.8915091585575894,4.766627458734297,9.912278474602536,9.75877451452419,2.9952221803303196,1.8677795659343206,2.538387179755984
2,1,2.9287570912834875,3.3871780070728437,4.679912632102597,10.282460709729609,10.546953179679955,2.960535867065213,1.9312253682757787,2.3903289303956563
2,1,3.111443323570231,3.4421760676402706,4.777791660811047,10.069256632646493,9.498363888155925,2.7952410065326845,1.7783244937504419,2.1601607769707827
2,1,3.2950581759565116,3.1781958007327558,4.923036301286932,9.989437597027813,10.078726814183852,2.666800549878078,1.9811246831090716,2.1477624905205452
2,1,3.0028162128545475,3.2506526899912096,4.78066796879715,9.927202510758168,11.036672950351512,2.4688035870691976,1.8659230165350762,2.1837614650658215
2,1,3.8144106078954843,3.1971666019126914,5.295777817170748,12.793379806769837,12.795976279848183,2.779624056401168,2.014402174533805,2.7785218993852965
2,1,2.6075411509647433,2.4840062781867056,4.211300353052629,10.441751144531855,16.509585210110973,2.315480946534342,1.60132065083915,2.1941082182958054
2,1,2.815457707130418,2.606756620318852,4.316939165883616,9.644061254507184,11.67564813626639,2.3548502320620557,1.763177140579087,2.2581743161329313
2,1,2.897895008710806,2.661430267399384,4.340955022259647,9.41896389483325,12.612360607132475,2.5372700081517343,1.9503831336601045,2.329758515395568
2,1,2.6570571618601275,2.3780262966176995,3.963289773876334,8.800549844300203,10.47294673896936,2.8929619421836072,1.6426952670593489,2.3573505447132117
2,1,2.636419920509061,2.36947571886046,3.8703964996861466,8.649254988554738,11.680766902223404,2.9260760503168144,1.749800519955103,2.477097826071571
2,1,2.9684930406187173,2.620790862230713,3.892693149579773,8.129329658649155,12.175713362798739,2.925614260948584,1.6803665182574634,2.303587267960474
2,1,3.034650679752313,2.6235639756133815,4.097594776367318,8.63900101012509,13.109997796144185,3.179363222627245,1.7019551479962505,2.4767954776680887
2,1,3.313532382705872,2.7547604317126613,4.636522647455992,8.784657677628648,12.600343278869065,3.051286770611577,1.6303598960930785,2.577202838564791
2,1,2.921308090638637,3.232299289847369,4.918883904902251,9.018381378140335,15.28555181084599,2.7678257586292085,1.6981236794123111,2.2345887959443145
2,1,3.0487296324821673,3.1107866146443928,4.659193803588322,9.872285071845624,17.32071998983532,2.945186993270756,1.7694115312505214,2.2416229361725706
2,1,2.2599541261480747,2.8045788045578877,3.596785344826411,7.80440618244499,12.18777328235058,2.9584683295048113,1.2985618381398951,2.2032008729291865
2,1,2.802046482022787,3.187359204497725,3.968030934357505,7.49014051644082,15.05378474559892,2.83439279682385,1.4653494346123175,2.2677204636457775
2,1,3.1582555340309186,3.1413134150505155,3.919137720634527,7.829388019676268,10.30902308185629,3.418170780984151,1.731552447622339,2.4591462464872493
2,1,3.096587315968927,2.9371922483120154,3.4728816148632506,8.98897003328477,11.395403756170866,3.3416764294888255,1.7306391642674348,2.142577316761135
2,1,3.3325955367045106,3.245291353992181,3.9641098842029447,9.309108556916781,11.71363198350606,2.6564675164592217,1.838088558327967,2.366248662427172
2,1,3.158818800677764,3.6350878590994946,3.812442059949773,8.772316404898467,12.58676918988503,3.27801037769399,1.8957888371613354,2.4816953817810403
2,1,3.3860612133030292,4.042159318938513,4.355827811780331,9.465257968576283,13.145034504938227,3.0588250692708505,2.0892866731330124,2.699105877552274
2,1,3.207065883367299,3.4412140298388247,4.312523373692525,9.998360070508227,14.075624462761247,3.2504785142954167,2.3906586485403816,2.1803606949153815
2,1,3.2623415926429327,3.9118269520655864,4.541510845884924,9.366320417544719,17.440887602552575,3.0500183978493642,1.8768737845646781,2.0368982182197604
2,1,3.6273609131559557,4.598780075212133,5.310366263711393,10.145628727481837,13.299692113692897,3.6283873040335233,2.0587359996425123,2.238799155650648
2,1,3.767626838087241,4.507394303331155,5.0089296821930755,8.315387392111393,10.588464231216706,3.0421359217165103,1.9876999279580903,2.314881570451049
2,1,4.025291216803123,3.846365065819091,4.782617039401686,8.962091970135196,10.926504971933053,2.9804372967594004,2.2034565082557247,2.3224539551791348
2,1,3.915019349078905,3.779774841130797,5.319980613128396,10.098060682991358,12.175477410027325,2.331565966182518,2.0935885021381653,2.6700948007404626
2,1,4.886995100340139,4.580633269417876,6.365197183303216,11.465692811507772,12.485186611528244,2.0799677540011077,2.444233569733219,2.5728946973646343
2,1,4.635523781749769,4.854119800931999,5.669670404149616,8.483672830575912,11.643497554811324,2.3439543193286436,2.165268445247809,2.2159567914298286
2,1,4.429359494830226,5.16964087605835,5.624732942099224,8.157045871497893,11.933409612398838,2.414673840340227,1.9896054531049643,2.5844889658773202
2,1,4.329922274086857,4.910793716265907,5.755282491243435,8.210891589241571,8.854019571292968,2.2131775795021875,2.254612088983606,2.5044632470784354
2,1,4.585048677323905,5.234863527730395,6.353900813137586,9.159439680570484,9.820577916955324,2.3658005210321322,2.410005067236135,2.739519318422967
2,1,4.1135959167784,4.750415967128934,6.276300122688934,9.899898486516408,8.709156538648582,2.4642926590433896,2.5929274666219992,2.728679928952014
2,1,3.923713522230238,4.53997709585199,5.7671645847605,9.948853724798052,9.082061527861534,2.474094125685704,2.402169704012311,2.5198887199789404
2,1,4.209295939079985,4.725541567979709,6.265445320690849,10.058885063473008,9.492657374318693,2.5740955804865706,2.8047846060409753,2.5489643835940217
2,1,3.98835388843903,4.019055076562411,5.485647363187563,7.7500021615282,10.757914132819085,2.5425041861415005,2.48354867060766,2.625243742724499
2,1,3.266325495547893,3.5554246522871393,4.963313778348405,7.944755190911341,9.18276130876324,2.3277064974835686,2.430907830318836,2.4264719532744
2,1,3.712990087784845,3.737064573204557,5.607494330252397,7.612054185227161,9.956875571594436,2.4240924594206694,2.662823393773005,2.4799024646604617
2,1,3.5276445901084434,3.0659818422811673,4.822817184537373,8.139784988036876,5.932561466344808,2.6739285380209554,1.9978605841367045,2.186251528037965
2,1,3.4172217778452634,3.33484805405833,4.849914978617245,8.066088475972167,6.444633472117,2.8165533488657073,2.1028892728989104,2.3161835461450733
2,1,2.999531174196554,3.0063458527102047,4.43191389753674,7.415484710241439,7.503640289065987,2.659053927223678,2.0139033511232562,2.4575741457421625
2,1,2.920455584398225,2.9982778279902287,4.848328297773276,7.843853242215006,7.876382797619985,2.610742760828027,1.8840760156674818,2.3563166774774382
2,1,2.89693713279728,3.146469481209917,4.804609660560182,8.839482834799739,8.575487571485112,2.8528837648595897,1.728659587280016,2.26555298624619
2,1,2.626971278217337,2.7586118284062775,4.537091713120418,7.9728664463516745,10.103410617146919,2.839676167746476,1.989366090611169,2.301647293868159
2,1,2.5318406946939174,2.8801773912886124,3.907078206427489,5.887240244238225,8.962201551414953,2.2985500557014324,2.096763295677403,2.4663499443572854
2,1,2.4572237277755757,2.72417829849853,3.762674277794145,5.800762827120178,10.289973720028657,2.470931233532979,2.141782756319563,2.204311590098448
2,1,2.6686223358080543,3.0972357866051974,4.487389777135031,5.960639257070781,10.860604438422424,2.3168829501437664,2.301400564207913,2.256409881676932
2,1,2.1459324645440665,2.6808206544243536,3.8062939882320164,6.5669918591601855,10.491313306092968,2.2481184026137995,2.0704140517299985,1.932223614108249
2,1,2.3548565337096257,2.9745881027452694,3.9227323187710974,6.473449185359582,11.440757682474729,2.4862224189500646,2.2037398017708942,2.1327848016840814
2,1,2.4372232876407716,3.0058969928390162,4.103545285218968,7.001665210524225,12.522674357069016,2.373195319722327,2.2496032087676734,2.345766581106668
2,2,3.75200574882264,3.1497914967627114,4.749581922994288,8.947798804696198,13.45685042434696,2.808761966569407,2.2530717375762506,2.7756273408405856
2,2,3.310616957947577,3.236990154916419,4.176267715347405,9.034434450532746,12.488888175009656,3.1375944591322327,2.312610614321053,2.1284107599915556
2,2,3.67014601552591,3.624746740128386,4.659153225112368,9.77272976423966,12.311155353347743,2.8403573698302758,2.133390845392187,2.278674957107209
2,2,3.7183959198198733,3.4050722714028114,5.0613069067396665,10.56053056428814,12.781691890132834,2.683040296827145,2.150713793405996,2.4754728491018003
2,2,4.405600229524734,4.002014658846426,5.852069622079756,11.931020560232623,12.944313008585006,2.779711717324773,2.0323333719844494,2.252091473444719
2,2,3.8235771867656037,3.5597346128591343,5.023010532134748,9.250994330859779,13.073895440459275,2.6837776834330755,1.975110771127888,2.195807233934038
2,2,4.058948979230491,3.790978906739301,5.325317817978298,10.192478838879044,12.316907641544718,2.8184964943849473,1.9478398099502543,2.399228799250514
2,2,3.9892727623014843,3.3182726806529828,5.692900379001093,11.324012968894001,14.065300760563447,2.999477893684413,2.217643926655429,2.540610115974048
2,2,3.882204285003372,3.0912982292994333,5.177207515983212,10.87985414699244,14.83404215380317,3.0820054325883137,2.265445310697237,2.2932090800456155
2,2,3.5321470997809086,3.0347624848159365,4.399205341125725,8.680870222473981,16.49093591417053,2.662042420742302,2.207977164172945,2.1262763064063552
2,2,3.4447772878527765,3.0872095797275616,4.68793511784143,9.50390380309717,15.788357725223781,2.971945194457785,2.289411026679831,1.979241548003284
2,2,3.457204182368542,3.320326118965043,4.9397369309398735,9.792255565876438,15.722884773736533,3.2125457077159334,2.184400887479897,2.3904014779724605
2,2,4.307852657485999,3.540073371821752,5.149786222431872,8.9572818328659,16.888303229727992,2.651035588340703,2.122341561535079,2.5176729383203056
2,2,4.6788185627709185,3.9436018823703645,5.3318177395782085,9.757232691315014,15.59650730258972,2.412190919593616,1.957768610160361,2.7945076946218776
2,2,4.350335933770933,3.696525477168494,5.021495462707833,11.02425442419344,16.795834847105443,2.701712500774879,1.9881229588531586,2.383577663303947
2,2,4.106428210508171,3.4741689670825813,5.124106205470603,10.187316515336533,16.524735636217734,2.1070592246087854,1.7591807801632475,2.5274072354469372
2,2,4.173018307409458,3.2754792675571047,5.279813071097929,10.164665105000017,17.953581035493002,2.3198718505100486,1.9266930219685345,2.735427644952759
2,2,3.6782793347768354,3.281589156910374,5.742017001730491,11.480067572860891,19.68069718632591,2.3042927767368977,2.0129594614499196,2.3942252003613587
2,2,4.008962672938815,3.6381450303598513,5.917665982138219,11.327632435963807,20.235274922989944,2.6316351514923433,2.1916477362511957,2.6287561194102516
2,2,4.111548807391526,3.7024201408269417,6.036123135803919,10.978255941075474,16.447188204553168,2.7307180708341376,2.2663709409042267,2.8490445088784235
2,2,3.5176330184646756,3.15202644320347,5.85815843368997,10.817395924886581,16.00029402981679,2.469466550921559,2.1743140183222187,2.606292141912314
2,2,3.5376190414124364,3.136879955838471,5.509547980328026,10.407260050775221,14.486055145998497,2.5800515489976097,2.34002510230713,2.5672583845259647
2,2,3.2330206418088543,3.002061427747611,5.691225457149982,9.482639784872443,15.426966258881698,2.4544504224195665,2.3633802763586593,2.4999238027280617
2,2,3.2253636632691918,3.1503841881827594,5.351789119603849,9.917020085340994,16.596768823807423,2.5509445986214354,2.3356818963511095,2.5397871563313337
2,2,3.041981936687028,3.025753288079845,5.354700259780444,9.49234379779181,18.075577514732966,2.766919724083683,2.482941014868468,2.5018037874557226
2,2,3.3237695809086225,3.3927436178818535,5.7099339588157,9.8543144159867,19.887803799574378,2.957299937548482,2.347004460357343,2.455755425331737
2,2,3.065550100150267,3.2773939170931476,4.999383004184897,9.24960340659036,21.268331822175345,2.788253436448841,2.178923022103557,2.3730093736799236
2,2,3.3391963537589824,3.3776225665845776,5.392143939303175,10.092430248952232,15.94112062383892,3.0355638510959904,2.075296456026678,2.618615847230111
2,2,3.692038855512078,3.9109409998861135,6.071149189523599,11.085916001816068,15.267959468891814,3.2378011864289946,2.259332864794692,2.5224050335928205
2,2,3.732024134525985,4.056025793693037,6.302067565779159,10.689742207215636,16.384494085674724,3.2066886725236072,2.150406824577124,2.481435887434843
2,2,3.8729332790785507,3.88269289581804,6.411380050542638,10.424093436769592,16.135930349987195,3.1733465629616657,2.21803430878139,2.367700517694297
2,2,3.149604493778071,2.9842585653082447,5.40086670038481,9.428043489581128,14.540854868218087,3.161249102130319,2.2274049047210696,2.231340567437895
2,2,3.186465184880705,3.2373249195882203,5.215764718418451,9.645264729099047,13.784693190597844,3.0901471739732655,2.295847818498428,2.3033413550892643
2,2,3.4093014347902635,3.5573065891662403,5.539740443823992,8.949319403547264,14.729081466307306,3.3567421554069545,2.4371693833946972,2.525391848094106
2,2,3.6820876659930724,3.936799909181851,5.735688842593017,9.639178620242046,15.401822147750526,3.3604893025917777,2.5932138125606516,2.6499192029879604
2,2,4.1075613286642865,3.9272720708845243,6.073416319706745,9.662105178147954,15.719473871619961,3.3976705876165196,2.328311634953989,2.876713235091156
2,2,3.7948687266827648,3.645176940797622,5.862999677563711,9.490890826950562,14.569920246686868,3.1832459912121,2.3314440536259564,2.6035343600724916
2,2,3.590227690502424,3.2694666469371425,5.548076411507726,9.776198796734423,15.907948572971042,3.163266551992251,2.339570845721535,2.406797802682381
2,2,3.446625387299811,3.4170353802674813,5.109830239045835,9.409226543750785,14.824629262556916,3.2919536688993034,2.404096749757276,2.514809495936227
2,2,3.3210651408322733,3.144553995152095,5.150836619651462,9.758451049036593,14.905179305609341,3.3510581745471555,2.5633265005875705,2.288866379106902
2,2,3.7001173829655087,3.2829627000706534,5.327266236346156,10.815013925848929,15.861367723216652,3.5774339911100315,2.6348609773875578,2.542737073957437
2,2,3.183887279235398,3.2878944499046936,5.512112207845218,11.385425672499531,14.847877503527542,3.4741723212339264,2.650150553327815,2.4749218846455263
2,2,2.906398328003709,2.7260336863072054,4.6305892016725965,10.808467927660708,15.414653392205517,3.2405935077617785,2.3054498002706274,2.512953140016952
2,2,3.1265663102406234,2.543790826727416,4.8794609251599255,11.71301270757089,14.547395418422738,3.4868133313462693,2.2897900968224536,2.440274679209829
2,2,2.7249575522794243,2.6774844728811438,5.13678388749786,10.823779249679902,12.880635906223906,3.6337364848831712,2.3661416465820055,2.295881376327538
2,2,2.7850843737178987,2.8858688287223666,5.14656189362065,9.32182335957091,13.441694344864269,3.429783541519452,2.2379793727694075,2.2122703068939047
2,2,3.0346607272521418,2.3811914147081574,5.053841421471566,9.614262235803126,11.94278409685981,3.2012855257134225,1.8717082685761817,2.195505254707962
2,2,3.0782299465539134,2.385840600223551,4.590145696597001,9.031485130421782,11.905558599411691,3.0020840462905425,1.930453255342919,2.15983450401101
2,2,2.819786066056815,2.5460564740019684,4.396356865503762,8.921037487717713,12.319152047809517,3.2500399684424996,1.9658568579635012,2.3507522002793015
2,2,2.9611343802776497,2.508199509938867,4.294805898931797,8.883429772192954,13.939401161379914,3.215229118688966,2.10134121147834,2.458484202438438
2,2,3.2239094361241007,2.55776516360822,4.598063149605752,9.87239473282351,13.406865634598628,3.4971246528172575,1.978048264952042,2.4721516139094137
2,2,3.165817147037021,2.5854891452049347,4.891223658137346,10.63679606408161,12.449571537420129,3.624502217059223,2.101594083954635,2.456357784561861
2,2,3.197670556763664,2.516714867938961,4.691431013442879,9.405355943196698,13.69106871617082,3.281750734743234,2.1214315082866357,2.44183618122455
2,2,3.0963409479661,2.6548991310232135,4.655672997447104,9.743238881292289,14.296555593779832,3.2472768376472794,2.1450875124743103,2.456073201484612
2,2,3.365392443189198,2.8070955107973057,4.84379646906102,10.280917962482985,13.624388180931179,3.485537482818648,2.2051458329059774,2.557513963832464
2,2,3.2914284865802155,2.8994239989491324,4.7111728120380345,9.980952990557904,14.500124715030541,3.253448003542175,2.163594565185399,2.583674715786847
2,2,3.072737133376748,2.919606023773246,4.436208190448298,8.361810615182314,12.757465286062692,3.2250804989621984,1.9798504751122379,2.5414415189992035
2,2,2.7998308270895653,2.754226461919796,3.8731470152924308,8.506416838618932,13.134053886878835,3.3464580376068667,1.8750298214816203,2.467561167401835
2,2,2.6072354928200054,2.7365391114879767,3.991994290653605,8.812681870556563,14.081317277609866,3.4736138717811724,1.8412509585102188,2.0801047444612024
2,2,2.7886336672961165,2.995297102244815,4.346475097830318,9.0066417918488,13.58907282864163,3.732975755329047,1.7510695338859144,2.146707970154137
2,2,2.88249526610981,2.503817157485185,4.337748482217765,9.12349786945642,15.126126846899108,3.2092705465426676,1.665601792493245,2.2222307732132927
2,2,2.8320565678785776,2.4829686992262543,4.149931238783154,8.86394827255362,15.525625358522358,3.2861026613971474,1.6821669724042843,2.2263297892998803
2,2,2.57027919016305,2.746655179174536,4.432836381784638,8.124429983222438,14.421331528317571,3.4537094824535997,1.5320696045243298,2.107816575699943
2,2,2.523425393305616,2.7051678252704776,3.9850032648632725,8.266491120594663,14.704115076886882,3.3248330616835617,1.5536403877808396,2.2373032006159743
2,2,2.6154199891772962,2.4697868584885736,3.9999197807683493,7.820041177077404,15.441478267115059,3.4417169092203634,1.7458614893696849,2.2339137341942936
2,2,2.7178532327838676,2.509754258931278,4.299010664110533,7.71178554688677,16.306975912378483,3.1827964084514484,1.8355966180788539,2.1001072726336463
2,2,3.1694180669894463,2.5948459956392,4.6086461343454745,8.898498927979807,18.060468437085113,3.2583024665976117,1.9319203560532952,2.387427121409658
2,2,3.3480642628071973,2.7536632230564253,4.765040335398302,9.169715287743696,18.195046612594265,3.468722308587711,1.821528730977321,2.5986585863253526
2,2,3.50316464736166,2.952473157655948,4.639800835730345,8.506383252404405,18.459380587534213,3.107185182408389,1.9306810016377065,2.6310744915492976
2,2,3.13331569444665,2.610826459455597,4.259494379609725,8.461919855677928,17.48187050105165,2.8843425960232656,1.8790593859053881,2.54841708186245
2,2,3.0306206052248035,2.4241940379159836,4.493241072418162,9.088267923793698,18.778938142458927,2.9588723818197256,1.6898800613070692,2.435256733439794
2,2,3.115217204325964,2.5428416112406254,4.674440987863275,9.939102047770662,21.075760049379205,2.8708002495136165,1.684935608924576,2.439359068673773
2,2,3.195539994415986,2.75805525193092,4.807748738637881,10.548460087552694,17.724238216426862,3.0426440482889308,1.7175065448032292,2.5892852861108233
2,2,3.3930490984541906,2.6625493086634124,4.8442109609241175,10.925062070610835,18.8497213527337,3.3467148514038145,1.7352535313304702,2.4483214859473477
2,2,3.561156673547392,2.8981987632299986,4.657122402706075,11.641443599983393,20.478306592372533,3.5304838849979827,1.8148671913577663,2.731520582246989
2,2,3.7008986911425614,3.261313503169386,4.271334481649764,9.99457072898663,17.57689792687308,3.3995481735920827,1.8760957544600967,2.6007544954833812
2,2,3.3606808554619447,3.315826262921018,4.4653545210048495,9.88551567320598,16.395158228880938,3.1965710434737957,2.1354998161092147,2.4437732017575793
2,2,3.6536703786815266,3.272360140823469,4.874603827317916,10.398047691362322,16.774685238870216,3.548479619001924,2.2401605714193793,2.672671688647725
2,2,3.9671436107264144,3.6572540523570205,5.148585306383814,10.210498141058366,14.920808664898049,3.040906608077605,2.335492029032645,2.8889339553609354
2,2,3.4942264467577533,3.1615624823322688,4.731010129116923,9.54120401811114,13.917162249039308,2.98276973036107,2.0559064595678063,2.6109442655923933
2,2,3.5381806548119084,3.2021042483402224,4.660981769762773,10.129707394301018,12.407839516036477,2.69194868156839,2.225021001770371,2.422577056562042
2,2,3.402450010662319,3.6778154616344145,4.85759378473334,11.01924346089156,12.361097992232962,2.827545450931464,2.2403985133430466,2.5466544593654814
2,2,3.593428719810203,3.4232906615521097,4.691424206863477,10.22906237322167,13.255856748067126,3.027441204974273,2.263860616080171,2.4313900977700746
2,2,3.109289918054832,3.0264830138473187,4.7152365631765765,11.281074059615449,13.365472044769145,2.7192936832361223,2.0801154903858734,2.206576230611134
2,2,2.9284735822616628,3.062745440252531,4.966525277652198,12.176598648854576,13.270662779920302,2.554702830858054,2.2480959021639375,2.182950808275768
2,2,3.0771114697976265,3.060262725878636,4.708368759865536,11.400565569509187,13.879411106724728,2.7427427843912002,2.136407379882305,2.279422611879337
2,2,3.163509011870726,2.815067200219702,4.284735949946898,10.945100526922394,13.513177081194817,2.1629499208953833,2.1538522341248565,2.1627744709818897
2,2,3.1382152043565723,2.8165559143942973,3.870763517456544,10.664737215444838,12.32962410013561,2.46660695356978,2.1824247472984957,2.221179389025493
2,2,3.319040463643008,3.208972194490992,3.7940157040080758,10.059086015098915,11.074685037329806,2.7569471064325017,1.9559403057192952,1.8178731880298309
2,2,3.595167084828847,3.3612713568269985,3.987969540178657,9.17629200272419,12.70877654873009,2.935104945036153,1.7869545073127375,1.9649307154677835
2,2,3.3947857019395835,3.1722551690338405,3.443364351569974,9.669364704573203,13.862137178437058,2.5429395412233164,1.6064194829967804,2.2416469223953546
2,2,3.0752487523504373,3.3174603730578744,3.6499981991336545,9.565935929011564,13.762858672041153,2.655504552150077,1.6020201333279112,2.5552874720460617
2,2,3.0854805547860535,3.414535986829465,3.754050676202393,10.729936425364787,14.595703679584274,2.898845973062218,1.6620708678299647,2.3707191510399652
2,2,3.1321577265562612,3.533520625243681,3.7664785590290126,11.392692338399547,16.311393073967615,3.0432862572430928,1.6649270406701504,2.5056326303406324
2,2,3.6660292229566505,3.602342863368374,4.1418679490954915,10.038133933356391,11.159451462981533,3.1368871946344266,1.8288110151642027,2.7686031125047132
2,2,4.032538016586226,3.8138212736396517,4.177494567207924,9.852304309335798,11.030641355818904,3.3373569731495167,1.918161839829998,2.7413503238214663
2,2,3.865320600976323,3.666388482741764,4.510690923444418,10.720716487941651,12.157325740624366,3.1284643429360894,1.7268924532694063,2.5580140386233725
2,2,3.7851061516771805,3.8326242792335456,4.895533261144547,10.848176544456408,12.936444696211073,3.0333713818623615,2.080949130347058,2.459016222950318
2,2,3.7899223672184323,3.179584634904121,4.305362015593945,12.121281891980061,12.137195457691142,3.0080468301176797,1.958311604381648,2.523683388358113
2,2,4.164703230506723,3.4994243262114724,4.543137916793417,9.579156018555706,13.6341561458276,3.3950104456510846,2.139249506845573,2.4285561420143336
2,2,4.04881988551622,3.4767873471835067,4.267598012681569,9.970479767171353,14.241403681935246,3.5522060518404905,1.9979220091928624,2.47988758079222
2,2,3.474382035326338,3.453629923248797,4.066677962390076,8.197205006142772,14.294939770288096,3.4603380435079467,1.9846824018770155,2.6133548004094007
2,2,3.7934943714713527,3.532162209010006,4.222160787352925,8.13113973829315,10.618274504464432,3.2828444218237904,2.0171863055920745,2.2702182295564213
2,2,3.751233314975113,3.205802515272576,4.5740009036473515,9.592114047508048,8.632564858086589,2.9284623047305245,1.8301828565510578,2.4010313667041006
2,2,3.9471233239269363,3.4323644967669686,4.676070556772355,9.12529631760455,9.403416665539766,3.0682508128889276,1.6472032424820702,2.6215203008373047
2,2,3.282749463138757,3.104256283317278,4.432761283273541,8.463292778502874,13.452676930522351,2.9403246889489787,1.5558545049969041,2.554423418338701
2,2,3.6800764561837283,3.390502114716498,4.922649077021006,9.135056050546227,13.064832616336334,3.175151151745894,1.5165415873945889,2.7144922966221845
2,2,3.874485219872191,3.4740956027565972,5.304614224440808,10.05904736868565,12.881517778287424,3.3973272831862844,1.537153088681819,2.963406159473083
2,2,3.792114613296086,3.4243655626089335,5.217471971202701,10.324704052833972,10.732700552416098,3.379682262166398,1.7312962687685363,3.158423218945491
2,2,3.624863978393562,2.8274213906571886,4.837303963447406,9.245918185717517,13.029977347553013,3.351199855411885,1.7064477146158887,2.890185117528286
2,2,3.7108799617061536,2.876751281820098,4.7869441795502565,9.622136486776428,12.082509956107062,3.4410545092048066,1.8075615938513103,2.956386488451752
2,2,3.9963920066103262,2.7439953559857173,4.905893005165326,11.300145822385794,12.986701111308044,3.2865741824828754,2.440165505978842,2.7859393731498243
2,2,3.8881105938832117,2.612968646219739,4.6622178877308755,10.254550200732846,10.99332722774388,3.212549389998453,2.5963443089638587,2.7545079646645365
2,2,3.2991694626698975,2.9680545720132128,4.294664305117147,10.224183563876567,11.760573793799068,2.857281729570819,2.5484636410308,2.1588737600815744
2,2,3.659171037915327,3.06431022348444,5.129544666094542,11.069505626767466,14.263986201574927,3.262909483074818,2.2174251236585447,2.2967930546149224
3,0,7.857749511286534,16.255736456102614,42.06772464012249,34.862477968403816,55.4702921053572,22.30161424589253,22.852550561862316,8.94319026181657
3,0,7.7516115739884714,16.44159784173003,39.567031236142,33.39683474841422,55.65617881109795,24.625898660094556,26.395420432238854,9.51048262123882
3,0,7.8900419071495325,18.010551311375597,40.09893161957669,37.699432672743306,58.53655285466274,24.29749735802793,21.24887007836801,9.241365196472092
3,0,7.012363353891333,14.337825042522406,31.050636041353805,36.789086694612344,61.137547151230336,22.59540849643469,25.94305568712684,10.307437803672249
3,0,6.886590026556559,14.508130622544028,35.88974906330552,42.20767209952139,57.09107546852315,24.06763973545791,26.951234983546136,10.053023623270112
3,0,5.962454266909181,11.683485188869726,34.225729952566574,41.28036322017774,64.7284043865585,19.39759948561904,18.868929954398876,8.334964536339834
3,0,6.867450319765923,12.656332035891678,36.81558683889978,49.72603306548133,48.214697420556924,24.311112533433445,19.31355732127847,10.106587292604146
3,0,6.524327157932316,12.560958401502972,39.117566987478945,43.53715796301634,50.97984520947579,27.508806944059028,15.96899100638496,9.530505459002645
3,0,6.181132814223622,13.431559271002572,37.91948088455004,38.69604857959884,54.19066299188953,30.076464811532478,17.99527723616597,9.341286852008357
3,0,7.318332813923356,15.777674774035345,40.038515401888056,42.06356518325143,62.123499576872604,31.782607354091567,19.585694783812823,9.928170641623943
3,0,7.958851598831422,17.673674518220967,43.8336211185123,45.041661113514365,64.61742326332319,33.090034243254316,22.112048766926723,11.013434677477772
3,0,7.878993282170519,17.28624189082183,40.377507030189406,49.063360771798834,68.1047669845648,26.31237672410342,19.28502641909269,10.260630880094993
3,0,9.569145260028039,19.364578192578502,58.0447884590212,59.55337321223559,70.59160704525516,29.170360838446193,22.046015304321106,11.100336224678532
3,0,6.278633694191491,11.232838762496659,43.75220932333491,45.41297120756006,57.5689659254562,25.618245774629962,20.25994848153849,8.759167990023546
3,0,5.279501279430302,10.896249422570781,46.332516628067104,33.25444990414245,60.36924506345497,24.26036851153173,15.273117028714443,7.039330106143268
3,0,5.628749644321912,10.972324225373724,50.86400713367921,39.06447398669975,54.60113121468023,27.268009086716194,14.763985830330455,7.708236125656962
3,0,6.1453642816448,12.390482828734942,44.99438241907337,34.489999067175376,63.134554665475925,29.915684148484836,14.236867445605512,6.867121387901099
3,0,6.586186338087722,13.583335447772289,45.48077538401871,37.918059963004445,63.228228406208316,29.635084822728857,16.087159320662014,7.941522185200977
3,0,6.925070295934326,15.59612970915103,41.46662796027919,42.843646075999445,56.60857141567623,19.6500445574668,16.271903485711476,8.244437254539385
3,0,7.267902417606099,16.32759730014692,40.11261173013946,40.9903194979291,57.81062766985086,22.50283299040518,17.043924182433972,7.096077434123166
3,0,6.945071609008717,16.58542587138836,43.92153423521545,44.23749842392018,54.8946866676106,24.41651363943257,16.652367582436607,6.357862441765579
3,0,7.375211219614388,17.294099181456183,47.285704084554716,42.78627993943202,51.50783800960564,19.284004329557195,17.486861617935823,6.94828848139031
3,0,6.621393024156938,14.112042068523017,40.7837753192814,33.96361622496699,51.64680569255934,21.328994492712905,20.151365188326782,7.412975858297048
3,0,6.660488328623524,14.851220017903644,47.1174778627192,39.77036060892748,42.603960851178634,21.50012915121094,20.642927492435714,7.3896350471748455
3,0,5.494303879480578,12.402193153337546,43.37965665685289,32.84289594024558,50.280916038189815,22.267279135434578,15.473995171432712,7.158399759346389
3,0,5.152384632676106,14.38149312159765,50.29925772293435,36.811220368889416,46.6955033476139,22.761415245735247,14.802239085646589,5.545876912544034
3,0,6.8979902111578495,15.030588059221753,46.88956105498383,35.96200160912772,37.662294773287734,22.50903681226,15.056604565445893,5.156623862719906
3,0,6.60580030806846,13.738767779828656,43.81410319214453,34.19298068682995,42.60528270858459,25.010148952727082,13.685190193834991,5.802811462622361
3,0,6.159807153840307,13.780040068191811,39.21309141777036,34.85450025588559,42.53638086142534,27.277932431369194,14.683244638927254,5.513603818797807
3,0,6.953689298226338,13.665356648624424,41.92021433721443,35.07788491799864,41.18001937019738,25.958085950893693,15.502349791459034,5.466838836460239
3,0,7.583155161748496,14.92267817884651,41.49762113341742,38.63083060028483,52.47428861922011,29.979301384783838,17.119615260836316,7.017908064392537
3,0,6.8634060209347965,12.407863830965523,34.942052603644555,29.8853546315981,47.5574061076879,27.50098247487203,17.491910783440833,6.592452591256827
3,0,6.267697142982537,12.975730804012263,40.38423329660217,27.28551272084427,50.499904708017624,30.51035529376364,17.790649558175982,6.145525152447784
3,0,7.199908722720894,14.992730358630743,36.9437734361761,30.111372167377258,50.04006018134802,25.24165763103569,13.308089544541465,6.755007424834669
3,0,6.814950541190744,14.00381296182885,37.27521227971625,29.70975452779203,50.52650285596604,20.950647895496243,14.060546490049946,6.603602573293983
3,0,7.244634942831016,14.38893829912296,37.2422636351536,30.31782422859097,53.031181212777874,20.88815900296695,16.77939936092304,6.603510339849032
3,0,6.917453107784917,14.740069089948113,35.78599527498413,32.357811193834394,53.97681585924407,22.47483438339738,17.053849937344424,6.879126172610852
3,0,7.307459464629726,15.293128824200029,35.23865562657505,34.25189059753906,59.42072128599303,23.882224622927733,19.8677138297099,7.537390455718016
3,0,7.83347009960847,17.681772902815972,39.28311627059328,33.868759971169744,46.88247621831524,20.57194146176033,18.014974364847006,8.364636239252281
3,0,8.954315749845767,19.445648549496724,41.8275106049151,34.736657341566875,49.90106172102864,21.52626439023099,15.492614345927514,7.494953637761154
3,0,8.727367074660602,18.824948537151865,38.82889363013336,33.327590272733545,51.22164884179671,20.50431156607479,18.421748382980415,8.016523003268503
3,0,9.212963363688049,18.79023214239721,39.63237122146919,36.41554888078993,57.0733542055725,23.375705253361925,17.956977876565922,7.32044248743438
3,0,9.042135771361748,18.75056653567507,36.287243604057544,41.24037349501661,58.902255533973694,22.17807662123389,16.100378693148745,6.935087523342583
3,0,9.338309262673752,18.82788409863458,38.14369917592098,46.77129899404455,65.70508855314472,22.84390884669543,17.513353551710683,5.987473591909745
3,0,8.24307283014522,16.69853165847106,38.783764972262816,39.06888915955004,60.54807047316951,22.529946768341095,18.506579023560256,6.708658720535585
3,0,7.512888798227625,15.071728883031387,35.86543191123996,35.460570291015365,56.19531712803481,25.153903685226304,15.410418531750462,7.39994566954718
3,0,8.510021847638063,16.2406776768503,41.11369650092529,41.20728284800861,60.75665037471593,26.088891286275597,15.108372799888148,7.71922022082282
3,0,7.06139782412854,14.067849498878585,37.72814882599774,30.230891129743565,52.25761297680633,26.463291118928808,16.03285562764396,7.390356038268015
3,0,6.660713588502058,13.630476847797492,33.08716910648887,38.09129306773432,56.19486709379407,30.066588126012995,16.756445365284534,7.707813619410733
3,1,10.426607597515629,17.968103349587878,50.2173243805273,55.26742700295059,50.45598179021069,27.442908539004296,16.404704533612247,12.180859628347054
3,1,9.411835508938484,16.61635960303423,44.99076011401264,50.30712860429394,49.56709180362235,27.304705996218868,15.258281763332372,11.113788911648443
3,1,10.243278726667084,18.032971363240343,45.7480826271421,46.75022356092291,52.62819105604191,30.887429178387034,17.024462749018678,12.006100101959754
3,1,10.523169017797716,18.46140164364426,49.44418390806747,49.54177044456905,55.87783433216428,29.302972031725897,15.44089829885109,13.295018067439596
3,1,11.940411093594166,19.98660161019668,55.89559587811212,48.35519874904513,54.280688750181206,31.430454459333507,16.124942922010874,14.556552189310436
3,1,12.680151237508877,22.138750608032684,59.03606008665747,56.4110276075809,52.532082222738595,29.09514295233127,17.508257936466254,12.76334554445614
3,1,13.115936442508234,19.730737560595394,51.946552902117,51.539725521516196,48.072826393739334,29.90685814610059,17.77973172823132,13.148725091882007
3,1,13.051870080704818,20.936416676596153,52.02827273762232,49.438665069193135,52.036524794591706,28.62190769447264,20.501150892215787,13.617606134864666
3,1,12.859656870477767,21.598768941444074,51.09111426140205,51.035509736893935,49.89006363950238,30.599853223066184,23.187635056154967,13.624259548414127
3,1,12.481469788365441,23.333390091963793,55.51117294495536,50.47603627699839,48.27229789487675,35.72447764386426,23.962195086577633,13.994312253523862
3,1,10.286204744902784,19.41272938726764,46.35674573111429,35.37954584205116,42.44327109434111,27.62837957734105,18.454792146115828,10.295471813945449
3,1,11.415184017225224,20.203572918316315,45.687900331632896,40.10698869061827,51.12547729594923,31.933851706978285,19.982647410326162,10.418096814616385
3,1,12.86638094231586,23.549395397697715,51.652705722843685,43.78098877533138,49.365999246915294,27.767605439799674,22.805109952755213,11.228266302153498
3,1,11.439014199822688,19.289268228496557,51.13931969874221,44.198913853375984,44.14950523045451,22.313176521731567,23.889638991194193,10.63900732264077
3,1,10.64302426368913,18.169154908902318,46.04021154980053,39.12042127777359,39.45419875968146,27.123731111573033,25.139159861071537,10.188334455268372
3,1,10.655428834963551,17.29579545466921,43.94189091598458,34.83031385753206,37.82697841953253,21.521968156888352,20.170672614855825,9.923890201699496
3,1,10.72952972326823,19.068658104333586,48.41383531923,38.55504000480009,40.31752895198375,22.323761399434648,21.74776403991173,9.533006686901233
3,1,11.297065030089929,21.61144862030916,50.35802189248446,34.498280512058926,45.96933683143187,24.147563385092937,24.788847647393094,10.680562507821847
3,1,11.476573737309517,22.155822188501197,66.89007725200659,39.17123755169368,54.49995619727908,22.993243202923036,19.271895633341664,10.192278866461622
3,1,11.978489432742409,18.75234518448732,61.3623218421116,42.727044997256364,58.34659747537596,24.67250643092636,22.152619268575055,11.596892543201568
3,1,12.627844467674157,21.135799350453475,53.56704730136535,47.58732573784052,55.83024234688922,24.910886861118072,16.570667767389075,12.26159491689057
3,1,11.55811763603187,18.272328643534774,61.00578053500426,43.570215603716775,59.62375017996844,19.047194782633852,17.91901682210831,10.212406020603016
3,1,11.647795824642193,23.12796759542535,67.1686744780164,50.574328408711715,44.562012987003946,18.110536744745666,19.607155218396002,7.919900874199447
3,1,8.68894146867292,17.763573540612914,54.885209027812735,47.79174511299567,50.7048126420846,19.747495897992124,15.428378178115057,7.092435440871417
3,1,9.00699410098867,19.7334092927108,61.10013723822339,53.847985752471615,51.91013160124329,18.09018952949875,16.784309489743876,8.022910197861927
3,1,8.14866599326958,17.958052659472276,59.42268593058474,53.441512887344814,52.61555381309742,18.855170519771242,19.304897471154256,7.21394845733902
3,1,7.5165191878235325,16.96565029004913,57.34258332583012,55.065299828823335,52.02801517306703,20.581624362685897,18.188722800183132,7.406221118792722
3,1,9.27593884232113,21.072134891240783,51.07813701496664,56.79638625521347,42.371338641150444,22.636180752711002,15.57375974607141,7.877460454754096
3,1,9.8982026886887,20.23005067895236,47.981087214760365,52.33973397674377,41.17103170186699,22.682755183754377,17.213408968577642,8.537513191307214
3,1,10.128055795882288,21.101926422974426,50.37184190755564,49.05982166389305,42.90268430091397,24.995270743193107,18.22452751460906,9.214486278632533
3,1,9.849907832239149,20.795575496034125,50.20886967415762,48.16543812988588,41.72111548677798,23.389682325744335,15.90116298968809,9.07734619514914
3,1,11.881019606059729,23.891773769502294,50.15645857820197,48.56043757015386,47.201934499469175,20.130794972610218,17.300814580378912,9.981613368440524
3,1,11.847915758379521,24.984153360436434,50.18138717897504,53.32531606351736,54.47635333532764,19.309910011860328,15.385349797358817,9.406885465725217
3,1,12.503997839175952,27.209303740602653,58.692684034723435,58.114518602533785,54.40846624935963,19.080638465146972,14.926894376762338,9.481075270622808
3,1,12.86786596013014,28.764414945074158,52.3266221497306,55.433552588371285,50.170723028538184,19.6402480759632,15.034907154379507,10.353044342033503
3,1,13.590503737838281,27.01333609373388,43.714197696847634,59.49244395706842,51.51843241255256,21.11594691987453,16.695188673313304,13.63941423769395
3,1,14.021802800292212,27.968618274953982,45.736493583944686,55.199647383542434,55.455922206159755,19.99405861236379,16.89038004372702,14.299134973043072
3,1,16.80656852005314,31.802966059652253,49.33863625935367,63.23681794943483,63.17581255151574,23.027913767648897,19.213452433361773,16.033123096541544
3,1,17.577659411364223,32.52915967328256,51.337781718201654,61.37916157558666,56.90211793142958,25.121341541273893,18.708688940507177,15.937813283881354
3,1,13.755377421699217,28.29603178162701,54.4138792323748,55.620030045709576,52.72027568191367,26.551902360658733,17.77442900273436,13.434598084139688
3,1,14.603622280801519,28.783059714721116,53.00880809944355,58.57672400045263,49.616939101774335,28.225867991349258,18.518197088443483,14.429162236086976
3,1,14.429806068174997,28.315178467123264,60.97654047820409,61.28648571168202,49.96022882434394,23.78455554338164,17.064748748323392,15.036449761334572
3,1,16.211608372743573,29.097157515817134,53.19566126873176,64.40738171676499,55.18178369914049,23.744259812685428,18.500505807431114,16.13686573810502
3,1,17.10265431424367,29.274524001688672,52.45356012544399,60.91327167275997,50.602820712707505,30.234645724104993,20.88007969953482,16.27539071836223
3,1,13.26086783284259,21.381592724491764,43.02561105029114,58.57824770763107,48.80631648530283,27.10020457039633,21.057622173864363,14.358942300575968
3,1,13.074420860294756,21.003244975253228,42.26897330640629,51.018480189442386,48.98896235792133,27.683736117177823,18.96033887610417,13.087488252020387
3,1,14.199307338073533,23.998797807408405,50.02463295003402,59.77892903591132,52.348782042419046,21.003040958911985,16.445810991956336,14.874892772312212
3,1,14.48174419515649,27.29596826635739,55.9260990995412,58.82401122631518,44.1075171093249,22.715117937989298,17.562962406512924,14.72056374867031
3,1,14.429083327441257,27.3103843500783,62.7033246381197,63.39556348087144,49.36129764020235,25.673030638333724,18.797693665909375,14.121706854048215
3,1,14.803356853737979,25.99057568869282,54.98685734549776,58.000058313055916,45.82900133562423,28.40751301149027,15.90709770806899,14.503365295924612
3,1,14.24682557978214,25.113541356890053,52.765009719158265,50.34295196704211,48.22426023025216,25.598058006949152,17.757247701905378,14.534233361403006
3,1,13.151568237458081,23.314116032664888,51.68903967970066,48.414113251514145,50.15267179296578,28.197967704809276,18.11488976874598,13.032099719223247
3,1,13.766085874071349,24.091975548688303,55.42737279556569,49.78996598031763,48.77363947395594,24.09222770280045,20.435330728684608,14.000882883740541
3,1,13.755553717837545,24.573359374411666,56.41495786995657,49.54071064071829,52.588596057724544,25.475982560050845,16.50550801373317,12.633668101150352
3,1,14.415758858110129,28.698849301941415,67.79958357815958,58.13693268997699,57.50203990912096,28.047772229514848,17.098452475352843,12.70113884557753
