weight,trial,C1,C2,C3,C4,C5,C6,C7,C8
1,0,2.2477645579470322,4.2171816131251845,8.912647569533897,13.671174387092762,6.4388367469464205,1.77961079847162,1.6088327582514044,1.491816361347416
1,0,2.378302390933733,4.145300556481687,8.647927097168647,13.482311468348533,5.758422640688384,1.8027859392129846,1.7814776607063156,1.4464108940396052
1,0,2.5011906084830415,4.286143741018351,8.580658241737073,12.494650209610707,6.119376781616749,1.892909260356986,1.8522772471134612,1.6140091520940119
1,0,2.805616456857116,4.114240019630091,8.182224425169938,11.143821798820474,5.447705066708677,2.0778461019086283,2.056046837265611,1.703673540732098
1,0,2.609840056768874,3.7414620523769404,8.297197744740231,10.877748955667286,5.245821179884182,2.2068231284736366,2.0293431714067545,1.8944657617738825
1,0,2.9296087545551956,4.085202924218474,8.457275113510358,11.912796876840133,5.474550108496657,2.3570292291164994,2.2326388413588845,1.8715990094383212
1,0,2.8295547336723548,3.796005366604953,8.109979131100804,12.503534935011649,5.756348132223371,2.229943698244935,1.9194659763903694,1.6805396888653008
1,0,2.890644431413833,3.863517389980485,7.902435818350823,11.992287841709521,5.245520400015651,2.370171879029964,2.0494942550136686,1.7411474272541132
1,0,3.156609352651813,4.247391492424972,8.89178966485102,13.41190681133234,5.387696328815393,2.4087905103418765,1.7469484827652095,2.065446079976696
1,0,3.5025109596483026,4.160678078485873,8.390468637780685,14.674691076525335,5.990249195720139,2.662575259422474,1.878604710559793,2.208082647355781
1,0,3.1645494361819333,4.039401010873223,7.763084476418562,12.765685881468904,5.810226427547818,2.616169316405856,1.9631679069451458,1.9920100421993845
1,0,3.256710770110522,4.283423339048772,7.990626743999465,12.559029738060373,5.663235175697713,2.680796509295222,2.153827531198508,2.106194910678806
1,0,3.518231687557165,3.61485991719436,7.104830004925039,12.816328017873207,5.912134539937719,2.6091107577100234,2.3083986048703986,2.3180660074441146
1,0,3.805487331764961,3.9910156575049225,7.777479570477237,13.98746843739286,5.985905789502848,2.686452274461335,2.32059251571431,2.362687998291865
1,0,3.399613472816976,4.4337556388671375,8.939964104598936,15.73645712378756,7.16389535444719,2.933031492811646,2.1943145100259915,2.1915735385791817
1,0,3.606217963677825,4.409978441152663,8.559842670561267,15.652285292928285,6.901073632315079,2.8473304118524783,2.219047313580591,2.2536115640812326
1,0,3.9377788841174173,4.849851716000781,9.53314438382912,16.520004024629234,7.10446244821231,2.8869224246312237,2.28593889731003,2.3281812696562825
1,0,3.6282683894395933,3.854789772506759,8.915902536705126,16.239676762246614,7.354912281743158,2.9138595436373516,2.403457437617467,2.542616654464833
1,0,3.6264912570717156,3.8753983754367782,8.696441386544741,15.564010190552763,6.945310001938466,2.8849279010826216,2.219369268011895,2.5597631796377467
1,0,3.7515071092231276,4.041870431675416,8.979990796109552,13.506157890355011,6.533609315821841,3.0492556441491585,2.3867999912695317,2.617341028781661
1,0,3.8799342272751267,3.2744597497527357,7.113052015149218,12.7504002532883,6.268927173810657,2.742175983320423,2.595677967016196,2.68142083043493
1,0,3.6517860187050792,3.542972617355279,7.232798421053877,12.34731514356236,6.603911275380331,2.7003550746887774,2.108309908066661,2.2845714196562206
1,0,3.2146048534204175,3.6093271414539485,7.37723222371428,12.513236475564915,6.786221889949355,2.65183735599405,2.0440636896390925,2.034439080583025
1,0,2.7600882707174983,3.504239572368649,7.525561627225898,12.345279904905283,7.254777523667136,2.695823207732509,1.6190254473138421,1.6519923270461732
1,0,3.1406780522780613,3.607533893393095,7.683226730646678,11.564175355463668,6.593120887166556,2.495721185433985,1.6649794081640965,1.8317903102220268
1,0,3.2115456080066203,3.9132194795516684,7.7108008991487615,12.450749545462443,7.0504361818380925,2.559824020604639,1.8331497832476398,1.8540694543825
1,0,3.236917906387178,3.9081884165008884,7.730879945864713,13.135531795508028,6.953018428445316,2.671534326661543,1.9416431894551949,1.8856855691450478
1,0,3.5066931603686458,4.002035803425442,7.709807454001456,12.264540027840823,6.178733515584351,2.5590865842473223,2.112245890081084,2.1244336212533304
1,0,3.2446275669837252,4.18155257540165,8.531268796987248,13.242669523762931,6.5160777405707675,2.4690559112368122,2.102702271017787,2.1704599224419763
1,0,3.508884338564937,4.257944284319404,8.845191359607623,14.141438339219718,7.079155973332605,2.7127455928730164,2.2215145054567595,2.304272037480212
1,0,3.601124006256566,4.239543561921643,8.76844872845233,15.208758451563238,7.372396980292496,2.8108981172919303,2.1977849531745246,2.4683222798526443
1,0,3.6975416127907312,4.267231872887465,8.452294491542457,12.422291919832187,6.4423284218759385,2.5931809084315307,2.1119065398558026,2.426459628739104
1,0,3.8280120503892396,4.137792965014099,8.514101569808794,12.647750710943825,6.44294196853105,2.6716536886952515,2.294799429854559,2.509093389805351
1,0,3.9898365126752395,4.196259104730079,8.121582021304159,12.570508778142381,6.659920664688405,2.761597645311384,2.530791707793312,2.757455480393243
1,0,3.6807661818132127,4.219251531469242,8.091073390325938,13.189773881646644,7.211049103677059,2.6917156642325897,2.25779372508383,2.402366377929252
1,0,3.642213742100998,4.551539635806256,8.773498897832702,13.272320359984356,7.104163528891916,2.777092061404155,2.4187197393540654,2.3967561167810025
1,0,3.6311892235746384,4.33403942177919,8.485653478416895,13.841083771766085,8.195095515022635,2.9138726127740786,2.264286910084083,2.398088278749596
1,0,3.526424819270241,4.395157476200335,8.460941321746017,13.805509063583557,8.160729464525783,2.7919282713159252,2.2209119867838423,2.3021329897526654
1,0,3.3297103261677035,4.14274694775541,7.841598942204641,12.772223953438717,7.885439683959628,2.637117592928993,2.2972792382566394,2.175877296910118
1,0,3.6516253737697726,4.598362760534454,8.32460205625151,14.398638858866997,7.607928243057287,2.999633342996966,2.512197081572132,2.2883286655583315
1,0,3.7506596568648107,4.6453130180732405,9.145380590350948,14.69762300223708,7.868771393813271,3.2360050029924587,2.6465168391075427,2.50033349242126
1,0,3.81556835435953,5.074181200584979,9.58261367458637,14.536183777080051,8.541870743361025,3.34657306549519,2.6222415858119876,2.46223894728655
1,0,4.272954743626286,5.378903385510194,10.346348747015991,16.65904067212079,8.306565002261568,3.5300057346705365,2.7239319105413915,2.7938499081925676
1,0,4.208137663595543,5.343444753740646,11.461815044477378,16.452818716116234,8.807990909123916,3.476802049529294,2.7955620076632655,2.909998075362155
1,0,4.063670263016822,5.181681884459509,11.397344019016353,16.37035070060466,8.50995184359051,3.3211603863464965,2.474937223303387,2.7845393496804296
1,0,3.991026877104049,5.188223385250045,11.398137182845606,16.487716739337372,8.187683836661847,3.2331954345503315,2.5399692900119053,2.7465059877309934
1,0,3.9513696117614576,5.40212486080476,11.302867008078046,16.47217649247081,7.818965569393148,2.9759077831851597,2.309854341129655,2.6150725081785278
1,0,4.153662077419379,5.297643193912515,11.390618622541218,17.18232807908694,8.468591962306204,3.1122341509116866,2.5569881177501372,2.9131917738286304
1,0,4.1275190979700955,5.2120238213660945,11.376061856919746,16.73834161359276,8.727710112104145,3.173060935250111,2.2718005056312163,2.761773313149232
1,0,3.7766306112464454,4.313030298395185,9.51577669325364,13.99278562284503,8.094868903555026,3.0688330616781836,2.1771872355500923,2.579319119976421
1,0,3.6512073538671608,4.73861044073095,10.033168297841119,14.535535652596147,8.904525276089865,3.1096723971022717,2.246820852107409,2.552977670142821
1,0,3.5119686183063785,5.208026622393425,10.860079425348372,16.36951128410448,9.34776931432674,3.1373010144915385,2.2715199077459647,2.573439062151901
1,0,3.2425964920805797,5.29476200957463,10.591375185476718,13.52349471734197,8.150643141227713,3.1694465827189644,2.0322267052404914,2.5026629092304313
1,0,3.616310589145235,5.115624110445392,9.93425149660708,12.775709323257074,8.238257804231944,3.09168595870034,2.0876469788530065,2.643450416199998
1,0,3.529665559678511,4.916371189163603,9.668338388973515,13.496801090357936,6.619066443525423,2.7944641843382305,2.0664159619266624,2.575892460226812
1,0,3.5139023200756663,4.800663721646527,9.305305103772046,14.731570651335154,7.304273734050334,2.870718808336573,2.1206315343594433,2.5087543508502166
1,0,3.4067871232649094,4.578181947916296,9.029943826653728,12.586725592047427,7.019115408601191,2.8715250443772016,1.879736340619361,2.5109658041198437
1,0,3.5097763155023656,4.614237827834027,9.377984918071228,12.802937789953722,7.40520572672095,3.0193801965259355,2.03293086921303,2.5130863525514555
1,0,3.656589214676963,5.205312983042437,10.005399467706633,14.540068456928577,8.346781267602465,3.338417325844123,2.2057317778277707,2.445652446033821
1,0,3.703019396902852,5.524261628526658,10.881428185337692,16.443335120672504,9.238642438669807,3.8138532745246447,2.18057889880348,2.391835035816951
1,0,3.5652803641030673,5.152684345780052,10.627975910186034,16.551762504023582,9.29387155776047,3.7437815403147425,2.448144342920345,2.417578880666432
1,0,3.300256858393741,4.356674628280199,9.693854048176982,16.43725618707455,8.661931000125055,3.231712831630748,1.8968979637610983,2.2482003395375827
1,0,3.191956641746563,4.79802416598482,10.393211922616594,14.82061230362115,7.293216741216694,3.181231889360002,1.9996325595271727,2.162630222440851
1,0,3.40191064781865,4.97066116209242,10.454958860844448,15.900528711590859,8.143289836944227,3.266128543423407,2.1444209895639426,2.1544667428980295
1,0,3.792452210921259,5.00438437396669,10.429876555313994,15.80028305578583,8.437984838263741,3.3906351896084184,2.239721622411827,2.352659171725915
1,0,3.426912808894881,5.15876411592913,10.360455673528051,15.987861947145543,8.678837237091322,3.4697982958624207,2.285731270302307,2.2084520587647027
1,0,3.5907829077929656,5.5849971955737105,11.099960725747696,16.885445707246177,9.371946307006876,3.6531969069710497,2.3742220938175818,2.384605609327867
1,0,2.710075702617816,4.900169381986924,9.389600544582455,14.674032597810532,7.402352164719168,3.085394360721343,2.100889019823447,1.9307001689607608
1,0,2.826017364294274,4.839320304821839,9.297921731852297,15.550722379451122,8.116021390061539,3.098937843075499,2.105933081869084,1.8251875755636537
1,0,2.714243200342108,4.794296999736637,8.322213279975248,14.390408354045888,8.585837953244168,3.091551673087555,2.1092881420528555,1.668190995282472
1,0,2.491688872837953,4.821889799295756,8.936060361616663,15.99627498593642,9.136314569347178,2.777657093104888,1.782867470779318,1.6902727756419835
1,0,2.3266056657049496,4.6313432443307425,8.430510191126032,14.620675682422037,7.457649472318513,2.9328317685213174,1.998883457391682,1.8102211547664286
1,0,2.481485595246908,5.01955515342757,9.161421732083632,15.143202858337443,7.3040689443962314,2.918993711116076,1.9116635910302389,1.7325773624238705
1,0,2.4647185094611936,4.778788417805654,9.31064450630224,14.976529919155647,6.963816719396646,2.8842926233003268,1.7942536591985274,1.753530631843621
1,0,2.636424329728897,4.951671902888218,9.79092478417364,15.968176273251272,7.476584228922648,3.2088821370320106,1.8174664000759158,1.8847913091396233
1,0,2.854302658604905,5.136958464874814,9.730973958225906,15.548320824740365,7.740745941513964,3.275663441145808,2.019896616203908,2.0175329307287746
1,0,3.029664346563784,5.078218708484572,10.196577611974261,17.11558902868342,8.260128606610419,3.2887439170408066,1.9232956429304127,2.039031395513104
1,0,3.184024167067027,5.088095826504789,10.272310702542063,16.03709997522219,8.432171808283124,3.5251792174997916,2.0095935012825197,2.010393431060395
1,0,2.9597085425635674,4.4130682885132275,9.015235676076525,12.874886942836376,6.9066783572531705,3.126128549684036,1.9704752891490778,1.9004338573867827
1,0,2.9193072663227757,4.299351513043245,8.770418548867758,13.789138307885384,6.936117084988239,2.9516978545975916,1.6893818114450916,1.779510979125321
1,0,3.029982571494593,4.478887613963484,9.052983358445653,14.243994834326491,7.270608051691914,3.2302337482065786,1.8208656495842868,1.7996418547674267
1,0,3.05735686287005,4.35081516069714,8.982684734201595,14.99626745353859,7.350684150524834,3.3773380764152154,1.985902600880635,1.9447017889667564
1,0,2.888335139787382,4.58564722297256,9.303016029695652,14.868308041369215,7.430602127688333,3.1870107316366525,1.9583660837323038,1.8487595843916982
1,0,3.0638416733131,4.085882821460381,8.90957119938214,15.418933900597619,8.008085473029437,3.2365714835456414,1.9405654754211772,1.7583011045010375
1,0,2.989046311535972,4.409427959710471,9.000367752692496,16.535827766732144,8.641784670665286,3.3397526448094705,1.9691004927771565,1.6597147801971106
1,0,2.9737205053903946,4.7129968980259855,9.077701836231254,15.009616932712571,8.515700360592596,3.4034832314307084,1.9116433003243656,1.7635432799826019
1,0,2.827468526840816,4.501661516315259,8.992462689125757,15.226178940948252,7.6493657613671155,3.501781240202791,1.8933776999739214,1.6460504949379486
1,0,2.8412463882832144,4.190215119483343,8.268833944974807,13.128224380055801,7.64702086501554,3.397086941379786,1.9236210278583783,1.6286668811103868
1,0,2.7402215004083534,4.310169326390613,8.053180656568188,12.624415425575362,7.863917307025851,3.653080140347533,2.0078127716065444,1.6904188521311938
1,0,2.8262616218581407,4.377598504271,7.939314667081255,11.924599442738591,6.991392566810665,3.444615820275224,2.0573360760424073,1.8137147547225134
1,0,2.996368010803165,4.404923980890123,8.199185929605521,12.277358452413988,7.063375817658345,3.4890303766604185,2.0977691351152066,1.9402501214242571
1,0,3.010687579082327,4.374127123000139,8.019650785159774,13.019920205534797,7.570049360162122,3.4210781757466364,2.2567745625412505,1.9414246130983468
1,0,3.215371963133775,4.244833192951871,7.203826051308824,11.26583335958443,7.251398206695182,3.2612744415662145,2.530209655205161,2.0365815378397727
1,0,3.065539700920219,4.4306366731272435,7.771715149424867,11.155858380099598,7.096921068662776,3.220057432921508,2.3167895030577514,2.044864971749107
1,0,3.0540772981279596,4.350782560413839,7.755194826663469,11.468211577152955,7.515080355270758,3.3090286259689106,2.3869363705535993,2.1587074606862746
1,0,3.3806813438725163,4.237926149105288,7.053815292643859,11.593735977098117,7.608312203389453,3.168752387235941,2.6012474326344344,2.2049586848985774
1,0,3.2604086624505144,4.074096147963402,6.915176714792809,11.222077950456672,7.584127552150732,3.177908821842195,2.669306913346337,2.32437466987511
1,0,3.1884185979857724,4.089482812933116,6.727969633287371,11.070447095949712,7.792973731795139,3.3014043813497245,2.6040495890124378,2.2640472224134736
1,0,3.1614923101379366,4.557157025209451,7.125155331999872,11.319121420205478,8.306916557694917,3.510496058072988,2.760823963626504,2.2795330896420696
1,0,3.131137561664303,4.104809705436678,6.938282282118039,11.513452159690996,8.104492859043969,3.497492925580123,2.52009521010501,2.2282464641940356
1,0,3.121971115100036,4.244284902620261,6.667434760096086,12.055658721344246,7.717699309460774,3.226762919239881,2.4711011859113188,2.273847481704282
1,0,3.0669106433084203,4.175862624829501,6.9150457486060795,12.28307763442902,8.073801467273334,3.3463785272845232,2.4332602189465242,2.2599878090028103
1,0,2.7718744943224736,4.126454456452685,7.0574126551280045,11.984674075684731,7.3294061620167765,3.0564035469219655,2.1415140523857286,2.158269016450522
1,0,2.869073625770975,4.203299910106089,7.191486969667021,11.43103669153802,7.467759116401169,3.156596006323022,2.263277498213115,2.105989595889304
1,0,2.958256726998545,4.349674647870007,7.755519383144243,11.606278770453855,6.38829928143583,3.0212556185084893,2.3613825305315914,2.0933686842537256
1,0,2.9272424682587097,4.051069554129282,7.61053973675443,11.976514112032248,6.6484350863269315,2.818049799903799,2.2413422461854027,2.0429182797405256
1,0,2.7801584188266353,3.940314803975086,6.8427387429790825,11.552923824124262,6.39183310795039,2.6750488421771514,2.181297983332215,2.0482110154545925
1,0,2.9903593951423644,3.867872114060565,5.87730353825962,10.87660610902906,6.353703838362079,2.824206482655773,2.286514359490123,2.130892325109166
1,0,3.0785461880338065,4.31777535840371,6.452699742559643,11.170202237471944,6.4399392118127405,3.0325716577154496,2.463126043424306,2.3337460612045375
1,0,3.2127648598027245,4.089892209713871,6.685544027254496,11.827764292941465,6.810976727530949,3.1942266747284025,2.4630167572594432,2.309869052099563
1,0,3.4106166669129254,4.500842731996548,6.932852594359635,12.550797290623283,7.279246096928861,3.2158092543937555,2.462796047129555,2.440852493958373
1,0,3.2029658931966076,4.203855403826137,6.834823191309761,12.243826257032005,6.975432857119958,2.9146899460098505,2.427684236335157,2.3048263365409603
1,0,3.069200251844408,4.016993008893351,6.8603116048129005,13.58097238898462,7.090532135081083,2.8701070620041227,2.2376310600631073,2.2892482988862106
1,0,3.2421358271165532,4.139410697224296,6.541269749596144,11.608168006174651,7.462364693721209,2.7826041004141557,2.477444485227991,2.423965154088354
1,0,3.2471591240687703,3.8316054914410334,6.630135654724851,11.204878954784443,7.446634458615443,2.638033981940444,2.5438083940134764,2.512104964777795
1,0,2.909446489034542,3.840175985611613,7.351519385947776,11.948714980060213,6.707321759794292,2.6112856005474048,2.5724095118508004,2.370130107145992
1,0,2.897170938985639,4.009096249968386,6.8948213571561014,11.840538357607649,6.650920133441812,2.723354266226146,2.606853505912798,2.4943043099072004
1,0,2.9619218277153037,4.087620663085761,6.826175932502509,12.195996587492134,6.593654665932966,2.8035064270061407,2.4706066620950793,2.4254279775684853
1,0,2.4504885944523562,4.053773314260399,7.187149393695049,11.886728071596867,6.040820798164635,2.555437034973494,2.3026357176028087,2.0908695254060627
1,0,2.6116038402672213,3.9174979726129027,7.428495839266062,10.85817241874566,6.52418564452811,2.555453839632938,2.365177025522108,2.0777792385829077
1,0,2.722654643103065,3.9101610183725213,7.265567573678172,11.089399230390324,6.612505176630662,2.575813502961268,2.0712399989003702,1.9739366879750277
1,0,2.7593245188089153,3.6007410759950287,6.600052216957547,11.610235357819214,7.033566533806644,2.693921691794638,2.128762685279751,1.9361419189025726
1,0,2.4706939881016647,3.180257852966016,6.3771886773125095,11.42535267526892,5.981516956940715,2.3119439548946557,1.9870236642756618,1.8215869335652135
1,0,2.562654641940878,3.319272288000691,6.236929007582149,11.767745563048134,6.333769303408684,2.352018804127458,1.9336476714576383,1.9357134512860137
1,0,2.752600050347107,3.5181039735577024,6.536289699407955,10.788268836901981,5.690915152543547,2.3609877387276925,1.9732776280580762,1.868651007929093
1,0,2.8160637971495723,3.516692044311961,6.6430196703419035,11.753001848462457,6.041781917033961,2.4527652911443125,2.1196107472128674,2.0053104661385563
1,0,3.088249669777264,3.5875362916516287,7.110836139064756,10.96292492214156,6.582649872855183,2.7124207691643196,2.19830029521678,2.1107251657372124
1,0,3.183186774350033,3.9516443966586903,8.03132089007497,12.239299850811136,6.202309966069948,2.69821160132814,2.086039746753232,2.345506206521358
1,0,3.369788882836039,3.986869897133351,8.701269539519586,12.49813998164308,6.532125469282735,2.865042861896124,2.3037400707121365,2.460000774273039
1,0,3.3798979187855265,3.3938950428144876,7.576033279236385,12.077322892845485,6.535568108264153,3.0087485555047997,2.4778193638371775,2.506755166728262
1,0,3.1588218077667083,3.3389472142892505,7.953985910857698,12.797963545841576,6.948205322225839,2.906654119996732,2.2765397944119075,2.2914690931477555
1,0,3.145332101509735,3.7924675315016265,8.926225301439395,12.844710196445897,7.608226203852058,2.88510194424768,2.1604711851623835,2.3948192536043345
1,0,3.069494631842748,3.8222783042558546,8.967975734509913,13.224932146694362,7.827606600292645,3.0671247850979255,2.027732475508718,2.3054479885880386
1,0,2.754895855974928,3.2871206268890463,8.433291937879263,11.146451439946032,7.25855959624844,2.7816968144929546,1.972059068587079,2.0957738737949962
1,0,2.6683528078758156,3.183664541433014,8.239171337637105,10.39386990169764,6.856302320801234,2.799954887308225,2.089800606235744,2.1109122884559013
1,0,2.552226832776303,3.174664286190567,7.959508206316594,10.949116795594893,6.84223208692101,2.4801103599269854,2.12429843374978,2.23495292787999
1,0,2.6779253084676196,3.3926291655509084,8.020840089456877,11.30863329860533,7.140459890781352,2.672007866111614,2.1404436330806336,2.22679382802493
1,0,2.62894605438587,3.2319106110925517,8.285179927493983,12.060972561811054,7.094211873358532,2.7989197461315825,1.9522043773575493,2.256817231099856
1,0,2.7208121669509904,3.4024251490584683,8.313885712180918,12.062046400062885,7.065855173658729,2.927220098204265,1.848994969569049,2.2546875781342544
1,0,2.8770386467574287,3.5792889445828995,9.218533116691107,13.079549004128216,7.18029027536645,2.838323063514105,1.8905584398881494,2.3183847762561465
1,0,3.124854556115456,3.7118638502075956,9.21239600670861,14.04023682138019,7.994959973980832,3.008862443308903,2.0246555855978925,2.465148803591702
1,0,2.8705205586992553,3.8746914193711905,9.651868335628816,15.134408024179049,8.277386518013275,3.0641810668989815,1.9949025535026874,2.2126477390108032
1,0,3.0008030460488015,4.0853543999567785,10.512515633190379,14.47191942099342,8.172524725589144,3.2491280332640664,1.9606983009268735,2.2551184095575323
1,0,2.990499172133094,4.425892333962833,10.700296278731786,14.219064021833722,9.341949129764677,3.368291067779844,2.0347168970822516,2.269761094276322
1,0,3.2278961295074624,4.8243910076777805,10.417761434764003,15.320646840287138,9.623359014922995,3.431059092348674,2.289949576110959,2.609343159991092
1,0,3.509034807330876,5.059495173407646,10.594161325200764,16.288165102704582,10.40360405349248,3.5763798443098085,2.5134378043547745,2.706905460073268
1,0,3.2521921815878745,4.839778340491854,9.968124695282103,14.994492500100868,10.138494662645805,3.4864300011247304,2.294313700108113,2.5485776358779915
1,1,3.17045343253925,4.494055160538405,7.49752278574744,10.434921599884722,5.815142598681962,3.5236936777818193,2.409092334266865,2.6121948568237787
1,1,3.295184883564431,4.364075277228918,6.9030945659831024,10.347641029536305,6.031468270683055,3.7304186523544165,2.5793137623392135,2.6428068552739648
1,1,3.4430981619935124,4.258690065822947,7.31663685906956,10.708680939970158,6.411749236662121,3.5711114931400654,2.41146604777801,2.499587491037759
1,1,3.5567147436160877,4.480426242533595,7.061427487556654,11.060552142427568,6.417159040176523,3.748155082140426,2.575244716785043,2.513481988923152
1,1,3.5689751727931274,4.232994154871826,6.370461259322946,10.959331480306046,6.358038775718718,3.4805159245892234,2.5439395943354306,2.752261094638281
1,1,3.794456827946233,4.586393109990783,7.1041432018514,11.979603319028826,7.007380093844723,3.6379154687143327,2.53280090836847,2.818491957442103
1,1,3.7525757390693593,4.6678978009020895,7.8306863021689095,12.174602088686855,7.494100602399389,3.6691774098170558,2.5074780856770666,2.6499289445039103
1,1,4.155060609251953,4.336585006782316,8.499945564522697,13.496999293156762,8.442118109862182,3.6838097797498373,2.5528898620131155,2.769409737133537
1,1,4.363519745788248,4.839833441043887,9.152660107032167,15.98026939795231,9.562304896027555,4.142059431764785,3.1144450773375936,3.2573792273415982
1,1,3.8752487500745803,4.196668176667904,7.086074005369894,13.585919153766415,8.399953190444469,3.0476763946915084,2.5767237749027245,3.1999504398647907
1,1,3.8902469867699767,4.789489689025173,8.098401160181346,15.271538730661113,9.201323425871763,3.098342746713592,2.6799173734618225,3.2153528264868005
1,1,4.2816193989283,4.362110883789306,7.163276747874608,13.415771086542007,9.050947353292809,3.4037715493420384,3.0245830576535857,3.5203159521576133
1,1,3.4811477946293206,4.871219347714488,8.004932445393997,14.321966433241688,9.134971394759866,3.4628175369706105,2.9100446000378715,3.1446675389957375
1,1,3.9147521396577454,5.096027104829296,7.468934624124098,14.503499405779076,9.9878999200548,3.884992526434081,3.3609541691424276,3.4036002582045892
1,1,3.5419210893480777,5.224042101725628,8.646809816331537,15.915139834335735,8.35806941785756,3.4740492861552057,3.0029795874335905,2.7932893761652835
1,1,3.8981585837654,4.903903388323974,7.740798327845293,15.037206534397228,8.482664283493401,3.2083827796728763,2.870563669350198,3.033267741203038
1,1,3.7710840935177874,4.632568402349126,7.867950436977529,14.45750789625486,8.095709711231677,3.1401927732123243,2.707037216302629,2.995014554329431
1,1,3.951137604979285,5.195620312336936,9.043153711693371,16.879587502128086,8.667644536571732,3.425585010326991,2.910302196325391,3.1762590374115343
1,1,4.497514299257904,4.761712665315472,7.471413571531411,14.272438945979413,8.00533542719662,3.428183721249106,3.1908963734552787,3.5682221561740217
1,1,3.8631258472842758,5.070110583651293,8.043467883828798,14.945689379063483,7.795929099901556,3.1475223977697313,3.2442041775197117,3.2116455439243414
1,1,3.41386243406203,4.932505428238786,7.915409632917492,14.595754492977868,7.465096419674534,2.6769327441258395,2.7471865501699178,2.8307817266117845
1,1,3.785068750377814,4.34796688122794,7.73725788671985,14.922504085040464,7.779503752910885,2.824917521344478,2.9745316462016076,3.072465399330392
1,1,3.9129187235627727,4.503760065379984,8.119486026135352,16.01734456230694,7.90397684390915,2.9881952507015694,3.0245696872726198,3.333513216566015
1,1,4.118270714446462,4.638391618040522,8.437000910761663,16.620550840757712,8.18953779638721,3.173923280999895,2.924826755934405,3.2450171083898276
1,1,3.7774755898022057,4.754338279360266,9.085214736985309,15.322985240223353,8.659747462090278,3.0015478529395208,2.600713699443458,2.9044618886086386
1,1,3.7762850266427295,5.200067373981954,8.791595378119519,15.542306853220172,8.399629663575775,3.272814803727278,2.5286148452585833,2.9340336999359504
1,1,3.202343679284768,4.852504846640914,8.839016637754234,16.155542804131297,8.807460501434221,3.2801754342364022,2.3252507293087303,2.4660297940783864
1,1,3.4402911256445416,4.994667950419361,8.92039024675076,16.175817787879534,8.961752374338555,3.1477744158658663,2.385694780285372,2.5433485434121095
1,1,3.5110544178911782,5.013499032160703,9.21343179578248,17.03119631801527,9.328869835966518,3.2818375487780185,2.3982012574978,2.4358474098690936
1,1,3.0853002626106916,5.486097280186245,9.529346122878595,16.198359538487882,8.40800280977522,3.1502549731216947,2.436919826605949,2.254699581446389
1,1,2.9683565222271464,5.043397018522136,9.70897828290569,15.407202229628096,7.8180695424719575,2.8599078561926774,2.494445681941174,2.36768227845003
1,1,3.184313738376764,4.9760132328442825,8.923607149160864,14.656755695158745,7.52415684802426,2.9567311324928838,2.592627905900148,2.42374486637821
1,1,3.3118927016575377,4.880385270782691,8.418364127864166,14.938733935870568,7.476637453867148,3.2007423992539503,2.7154504974738645,2.370524012250948
1,1,2.8211135226826234,5.083285827063214,8.314505519146966,14.125756174158022,7.732700299850457,3.237930694615633,2.7172443880469097,2.14265939067244
1,1,3.0930491433489733,5.518332312597757,9.064464368549553,13.645328498046366,7.77249502586157,3.4325956081619093,2.588194780801152,2.257176664431258
1,1,3.265609842539777,5.416542621384848,8.944830968295332,14.40302845649914,8.263640565899479,3.6947909768099714,2.703380282662696,2.4434776070151205
1,1,3.5052960994090685,4.934664371515118,8.691012300862921,14.12967540101255,8.248896808419993,3.7176818452865676,2.693043467333103,2.6136769821356696
1,1,3.6948504212595625,4.725405578858388,8.05838259240529,13.534592742687709,8.380353420366097,3.940045279503995,2.9142462815572734,2.8279361403265315
1,1,3.8146271601136674,4.906995418332797,9.01696472993428,14.783797082348816,9.222721614807318,4.0957513150498155,2.9249751305489937,2.862170007517511
1,1,3.7724397713025213,4.699302854456653,8.323578656858265,14.797367255230238,9.54782904751199,3.9345177754513734,2.8681101447535564,2.8089331442805876
1,1,3.5114513580083297,4.893873155783103,8.742467620249139,15.124228115699008,7.743470047669659,3.8986357028141305,3.199279845711132,2.8391177491052693
1,1,3.8102070273318533,4.963530128520899,9.53867443179362,16.05812497323848,8.280007243030349,4.068759146858239,3.0766103136164444,2.8088425757426365
1,1,4.059202622741241,5.383267857969732,10.002166880534478,17.22505826409169,8.935865701661697,4.165935722035862,3.2700390552819236,2.981020158358157
1,1,4.26269574301917,5.336082629308514,10.343303345232208,16.6178031395357,8.354059355528946,4.35330597677779,3.2221878245672864,3.121381836392363
1,1,3.8529979624197495,4.864487500303781,9.345185117664311,15.504782850290118,8.218365777943458,3.921652209110392,3.0848589686660572,3.0585735973843255
1,1,4.0179997803705065,4.839363393143918,9.45420077817449,14.997713948585304,8.122910607099612,3.877155336212739,3.047416760981759,3.0880757508797045
1,1,4.049064800202176,4.872723991520399,9.457973985891822,14.845466281405361,7.980806955657636,3.838532915187615,3.0942669737597575,3.0908504823564287
1,1,4.249001363455259,5.311293477692727,9.500861891480527,13.694994384058202,7.4013639660472395,4.127684451604384,3.179317922507848,3.022176595102597
1,1,3.806219076907388,5.523631137312306,10.043370315864102,14.248609248871627,7.610208773869123,3.816925063851099,2.665001790316424,2.7593866447611197
1,1,3.9194032743148606,4.988778056754962,9.534953484044305,13.786439545431495,7.590238934516578,3.659844418899946,2.686321606352263,2.5583074699484
1,1,3.874070029680189,5.0765103081774114,9.898863651764941,14.446428189381756,7.997896591405965,3.0543401674669357,2.3322710526273376,2.569443727484614
1,1,4.007031889730857,4.764313807560031,9.45289990830679,14.479783541166366,8.43508205852153,3.106957890779323,2.3610249745655105,2.6137464626430593
1,1,4.310521823235144,5.0328509605470355,10.15344432981216,15.157671511871866,8.7484728299789,3.418760803965718,2.5394306506922235,2.7797038420357305
1,1,3.6691614743637735,4.941836581299131,9.75627204343217,14.571754006625428,7.461563454712901,3.2401462072483667,2.5834876435681706,2.5724248739467406
1,1,3.9454256308459783,5.0335257829125855,9.98041577468331,14.777209297493668,7.317603877542406,2.9749458141309995,2.4287734719324874,2.732252745388326
1,1,3.899579058315498,4.268559230300848,9.16030419521569,14.82038822160557,7.712116846748721,2.7108042525134186,2.4046682127134686,2.7028198600236686
1,1,3.257268088740772,4.4817193540848965,9.169243650980038,15.119105193325268,7.819231901204775,2.790049775687466,2.1874096732072528,2.476087158381721
1,1,3.4329548544694903,4.69894607021436,9.736199255008547,15.881947546532917,8.646003040115936,2.876574287184821,2.3369732353830983,2.658005963697871
1,1,3.360488822354363,4.418781488468625,8.940190498052953,15.346679439164555,8.653853504050609,2.5829082830058376,2.179873808699752,2.5719131785015703
1,1,2.878872675137087,4.739617597406758,9.625636173122142,14.977918906771922,8.274578683667851,2.5739964228377334,1.9790976359476609,2.1594924281553673
1,1,3.125495165549697,4.506802441551632,9.36349427514242,16.24538461804208,8.64820084472173,2.7419012610064697,2.012163174551168,2.2971947939445467
1,1,2.956947080157526,4.076961813786983,8.4045014541963,15.050906127806487,7.922048262144364,2.627852558981354,2.115418778546412,2.383094439134741
1,1,2.856879436680677,4.248403748277635,8.69277454195962,15.77353432127551,8.500582864160709,2.6395288994202177,2.1241614228773127,2.475661911413912
1,1,3.1352651575680497,4.289820413513354,8.626285733564895,15.14261542248255,9.20746486225291,2.8909166056105042,2.2501756890448035,2.5904907680831277
1,1,3.442975523395459,4.458469478717147,8.733442464219854,15.797329463832364,8.467225208403237,3.0691501620681043,2.4639078477738154,2.750201182000809
1,1,3.211646417326058,4.890104125114067,10.28299667816296,16.38707043360011,9.179800822226198,3.055096432264885,2.6573132039517384,2.675414515317266
1,1,3.2446472158130897,5.468527512153525,11.153350056486188,17.756182514361488,9.69121488123698,2.979575072834627,2.4819430175229824,2.7577751245087634
1,1,2.675293975227068,5.868763865469203,11.958962163723665,18.890790839386753,9.786076692384807,3.0371938549289528,2.227617938865055,2.118589711573465
1,1,2.843996402872596,5.960207666974772,12.052232740290414,19.218540001157766,10.025653420200328,3.2518884468555385,2.2016712321736147,2.240172007875044
1,1,2.9352343128147327,5.001688860988261,10.715871285306937,17.35722167885845,9.379507582526609,3.2422490614478874,2.2577366682238753,2.239847152843951
1,1,2.5077334496217865,4.559406263384239,9.224397381066472,13.937259418572937,8.60736659429794,2.746383646939693,2.010434955384447,1.9749408465911726
1,1,2.8787026241998617,4.0952047899674255,9.109528058802843,13.423064256331353,8.253666259503655,2.571281631407577,1.8357186649008927,2.0855057363325407
1,1,2.7123187336070713,4.4891708740729745,8.657140307913137,13.242103327260159,6.812937968475715,2.4908454378182987,2.0210244008337686,2.038806221293297
1,1,2.9570847950006924,4.807041015774838,8.92504844833923,13.658905644796768,6.956408904143899,2.5748661654578533,2.086575839436986,2.08374094374418
1,1,3.1231284614883705,4.967973610192764,9.14433579856516,14.27110630966962,7.37982323090873,2.883351706359119,2.0683869384712854,2.236145716106226
1,1,3.1029464913726565,4.943154293162148,10.016905512198983,15.500361011212586,7.784198639098203,2.716480072770308,2.1610990183563126,2.358797479505638
1,1,3.3770549628109814,5.509507637738016,10.326502238434143,16.683733236254465,9.081060216077905,3.095007279270904,2.228944393459575,2.3939401437636056
1,1,3.64258117493872,4.968813036642317,9.809520192270565,15.309380410307835,7.991684462828066,2.8665720886693205,2.3833594548738573,2.7017332195987946
1,1,3.551129601147812,5.171834065889997,10.766497404690838,16.33365169917618,8.414691848198549,3.0828507714553637,2.332752717807388,2.6589841696964545
1,1,3.6270189947933713,4.976194835638939,10.519146258103826,14.235727321147042,7.700656218164198,3.473568479590436,2.4168144237227662,2.5380919687389922
1,1,3.589692480911135,5.250262216539842,10.726009337327895,15.65163327660728,8.153813095914675,3.4670552444475167,2.5407799507912237,2.387755993555496
1,1,3.7747340437053483,5.832793348568565,11.445754020979605,16.438847062047916,8.355948708124581,3.808166296833541,2.704314465873578,2.5752231898794795
1,1,4.124720050369448,5.608403688385339,10.87787160486886,15.929807249378188,8.783668306663063,3.8652267865573466,2.7925431069804394,2.5383649956481116
1,1,4.377839777426445,5.81262396739803,11.453285898010181,17.151522501975432,9.465103379170824,4.009369089533571,2.825800222876845,2.615639479914361
1,1,4.836017502789305,5.409990227750347,9.305469576402679,15.743316401586206,10.068146243211814,4.241632323675499,2.9354240773213998,2.9068213117273087
1,1,3.879935736558554,5.377235470274152,10.122184485300926,17.021478326955567,9.286893893376547,3.492371641530478,2.6985741749244334,2.4930057741478135
1,1,3.884202409962486,5.01680281175841,9.366219933170614,15.355843889928881,7.943531287597412,3.460314994004747,2.906964001014133,2.667545511349874
1,1,3.7902832497880823,5.215664429702842,9.009200582914474,15.81178374576094,8.666953858079518,3.771789686482059,2.9097029071381555,2.5129779683201816
1,1,4.189816564603765,5.415936083077478,9.27987508668184,16.79988731918851,8.885079578929137,3.9091211287402583,3.0630715744893546,2.7518520972401532
1,1,4.189978040376771,5.46481192370721,9.365401252281059,18.639606549519037,9.792783736682747,3.7297763591358977,2.902393842034349,2.752415313420514
1,1,4.339305989380449,6.093595400793232,9.590636252465783,20.253953752169075,11.608272790312531,4.0734987355023895,3.294711777662755,3.0103616898751753
1,1,3.852873300749998,5.7182292071169165,9.643083878397343,18.386784769972806,10.3382888842197,3.077147049403436,2.7621351425091603,2.3087647386220223
1,1,4.049657808707263,6.170629901533078,10.922231569267964,18.472073755516103,10.49275790217423,2.9969967072545964,2.7056172198414785,2.2787737618070687
1,1,4.46580282092822,6.215321612577731,10.310258927972809,17.877369469490993,9.527330411166007,3.2724055140187964,2.67542097018457,2.5364601865998573
1,1,4.720822191140021,5.487150308764741,8.379945614851923,15.601454418001055,8.942677369010415,3.2703070031128605,2.83343565805434,2.8196286221827385
1,1,4.253351640780044,5.926221351438832,8.909595256798076,16.124169075571686,9.604882545656643,3.3047749262768846,2.7689208388273,2.369717259906777
1,1,4.488587329854242,5.697801299066129,8.053471740165115,15.794434595092458,9.49482387338221,3.335710221090364,2.833246976410776,2.6526574885552057
1,1,3.9051390047422085,5.379257975865256,8.409729765316964,14.9818072465157,7.8048131899632045,3.1022835868986993,2.6553439856533236,2.634195800702324
1,1,4.164902210575384,5.743995563938935,9.243029498975297,15.432171872440417,8.2433108589806,3.2430348744893007,2.697229873101414,2.8192423646958917
1,1,4.492964316202481,5.455655462896229,9.34645530717998,16.218843412804134,8.291851745244795,3.38064486570569,2.959291937096374,2.952829246458617
1,1,3.3338901748664083,5.0348790754836,8.909880425813201,14.018584364581788,8.299013553890932,3.164684441699601,2.5449898919674427,2.435748805159265
1,1,3.711877821147491,4.680004228287471,8.427223340195376,14.691561250849027,7.794051606616654,3.0031277278831148,2.6910688316815987,2.6883589112600137
1,1,3.211306816936159,4.955849784733898,8.971926506957244,13.524951970632346,8.113267952209956,3.17742423404663,2.6632708979176005,2.2848811395240305
1,1,3.0880125170617676,5.096872756070766,8.844340236380376,11.967630279665784,8.106567322225244,3.6622614198806485,2.7635037666313758,2.3907202346714107
1,1,3.077607762107248,4.854390002847331,9.263707539100293,12.575695622736504,7.995592610331389,3.7112935797061106,2.887342202992159,2.2932110569351645
1,1,3.3171778667212384,4.806362511369975,8.374504308402523,11.849021980590944,7.932496051521799,3.455556109160611,3.065773059210035,2.3192885685552724
1,1,3.2181255098215193,5.018542465720912,9.403087420865365,12.900132033093897,8.527100694076045,3.8276417772941214,3.315717232390425,2.519943873051915
1,1,3.3904308971149044,4.598527921968168,8.952483586085496,11.575556655073195,9.661579053213751,3.6838347076023803,2.9623788167036533,2.540641386769045
1,1,3.319956420713577,3.954782207371657,8.374383868922667,10.606613241071019,8.424307698440453,3.5107401008898593,2.624627974002282,2.4926428049710267
1,1,3.6647889203663553,4.447923284984759,8.820853339138868,11.47380285149007,8.60126536275451,3.719926486997369,2.782698745185777,2.6067585257554526
1,1,3.795630431783996,4.723330871921336,9.337177349281255,11.64993563564068,9.26253732824243,3.686017389731104,2.6013795940452145,2.6710004258683
1,1,3.7579587597480404,4.89219120161637,9.417560240847003,12.371729231177143,9.258998889152995,3.5778051741578705,2.865945263476034,2.9236096059361034
1,1,4.0569712238440445,5.410927445037883,10.179479546681957,13.62396010869182,9.464036711050971,3.755737034153545,3.217329479750008,2.9136171928647774
1,1,4.014352739054315,4.667713089529212,9.860731482105136,15.16216126335239,8.94107032430039,3.9657137378503413,3.166315284334223,2.886762826007525
1,1,3.770541345878884,4.7875827831870295,10.08277932025897,14.345271730918592,9.298168226751816,4.192878739536403,3.0889641993530916,2.7232103122825855
1,1,3.8999403342689365,5.482269455199867,11.541737983005621,17.06178333945531,10.367449982379327,4.748615071748629,3.122772257476697,2.689734475428759
1,1,3.5986706552369236,5.463732158513227,12.106128826417919,16.977427216383305,9.289974605851748,4.38808088505298,3.213081079553758,2.5929641763885503
1,1,4.159223068670284,4.518173538563771,10.218970424198107,15.944682688394543,9.592210210876116,4.528608547997824,3.1198169162640967,2.835018289211489
1,1,3.5205661048079047,4.886877370460929,10.223834930148573,17.18714164393741,9.73152631392247,4.38489773810402,2.9696391900805974,2.687094621686809
1,1,3.403661338154333,4.999690652913301,10.739843754682447,17.574271589738565,9.481308752996899,4.619701694745884,2.9287576744947996,2.60553164961219
1,1,3.2346945759819907,5.092867869309951,10.161157651466313,18.8533452392164,10.588926045051322,5.1141869225899885,3.219142559327455,2.763926730823871
1,1,2.964122814780525,4.809148856456434,8.921209213146396,15.863687180329777,10.052255881356851,4.360081843926496,2.6746764666674747,2.398150455160864
1,1,3.018994403249279,4.808748313115706,9.106942656158418,17.599455140698552,11.102919544626848,4.472414567157929,2.8597979982915844,2.562638870180381
1,1,3.067402241409116,4.755969690270095,8.93783820731805,17.67193781311415,12.27187925518195,4.465342591267868,2.712721083270978,2.390602171065471
1,1,3.60587936844632,4.970432804524545,9.829420218813887,19.806677391969956,11.528336634661656,4.209122681488331,2.997621265639732,2.6227906523050506
1,1,3.6608544307397626,4.465574000313834,8.336907758760608,17.424013594321,10.74620919310257,3.78585194935134,2.5569824435278505,2.562567495638524
1,1,2.9213656505648107,4.331355731469387,8.348398873471707,15.39381424001862,9.37925766572661,3.480955619803178,2.3609180371444904,2.0517650743003006
1,1,3.0964305175286166,4.358161199315629,6.743102092231976,15.338130780936105,8.314381120857554,3.4955412885160455,2.5220168370822496,2.225360741856312
1,1,3.109116107729775,4.328082006597787,7.096880355253059,15.988179843444202,8.930383462153197,3.832927414021262,2.6508397222502396,2.1697931007899407
1,1,3.155726536233367,4.738842630928095,8.01008895330241,16.18470773059798,9.838832975450789,3.5642518083552264,2.4079432742795097,2.3333740959564464
1,1,2.917254108773283,5.2021858694181455,8.891949589865112,16.4864956564596,10.673205356824216,3.9128343102068577,2.3933611106907446,2.424816948781343
1,1,2.6471699233613255,5.032531144636678,8.77296023180649,18.294615388266962,10.758853272240156,3.869761760558795,2.492925561430551,2.1798679365178044
1,1,2.784075150488826,5.1287020087628825,9.205662343939787,15.75745913312807,10.541431621159878,3.843762662696451,2.3067339403141336,2.2471976923033607
1,1,2.9114570387616094,4.804197381149781,9.080916172125317,16.92911796382963,10.55737097861655,3.3553234754558674,2.355772296586891,2.1959171581481978
1,2,3.289988929220504,4.226958825405079,11.017611131375839,16.302154151073584,9.19032354182118,4.074275122252288,2.431599643174994,2.8581084339901315
1,2,3.4359203805760146,4.209881895369792,10.11229957952572,14.489914722324224,10.072960559533849,3.6794871608179616,2.2081993051805573,2.4892697649318802
1,2,3.620169377572785,3.7690295185070557,8.760032329362009,14.950403299610189,9.68032994193052,3.7661092656703263,2.4314756210150095,2.63137494959189
1,2,3.817795380927164,4.078612816654622,8.859346883308891,15.064051052988592,9.885248705979686,3.927738217809871,2.798168299036657,2.703026584678354
1,2,4.158722043905432,4.392275657117166,9.484302432603995,14.764668569280682,9.732318726157112,4.059767553877467,2.9547937671352074,2.7416457097960083
1,2,4.156446705715011,4.956139731458625,10.954559206479315,16.79468632411,10.052142235189955,3.388158079675838,2.0933554123984774,2.324470078279013
1,2,4.065428765658236,5.109905093104833,10.2534147297931,13.972119704252288,9.946741879993654,3.4169741306189505,2.087665471602179,2.2644810168273546
1,2,3.976542675047794,4.1247126879517895,9.355541659241311,15.089122745962309,8.529586875442115,3.280967588980613,2.3050773001649785,2.0159533894200266
1,2,3.9353837366325473,4.815163246969524,10.048579790634427,13.536801902923843,7.965486227629846,2.83624450132937,2.357343317338601,2.0830752578226672
1,2,3.8641267517780205,4.219225101904139,9.105812016823636,12.225677712250862,7.695285848372308,3.24198166160616,2.629924734379692,2.288374463414449
1,2,4.009363584180264,4.175619945107307,9.630856471706709,12.384974049949648,7.404233920199286,3.0128920619445227,2.785274107910268,2.550486015955596
1,2,4.284909482212947,4.2496884580649255,9.531362402325387,13.048304455439771,7.9422508333814665,3.083077092220354,3.1355359053988376,2.895389108742286
1,2,3.2931206475490256,4.126189431522136,8.729262779286412,13.469927396474118,8.48026905892674,2.2927697906107114,2.312440190506884,2.1835444675365356
1,2,2.8311978232961534,3.7632547632140425,8.029286149503205,11.446407694170588,7.776678272920032,2.5206246266458496,2.4667481014940345,2.0898778498241324
1,2,2.9932273645157554,4.223389898682639,8.852694294423914,12.52054674838024,7.3925877875645805,2.5264483103713484,2.5188862333294666,2.0223993359221253
1,2,3.4244607264282236,4.611539090341833,9.335358956889745,12.603820886870594,7.869025027241215,2.9839281189520266,2.617620509387346,2.258749971887547
1,2,2.9083514985884835,4.467568914581318,9.727260397908232,12.695897118472661,7.959934727301884,2.6058085969752134,2.4580546124967633,2.0488853636265576
1,2,3.16828013286132,4.4593412536431245,10.565169033265537,12.816112792473705,7.100037182531317,2.8631130367722553,2.5172009462784097,2.2202129681234744
1,2,2.8868390168162072,4.458622409462223,9.385178342525112,13.215319531229204,7.773873922591586,2.8200820567420513,2.4027629814473146,2.0878016703349616
1,2,2.7893471480665806,4.2252411897168045,8.801622414246523,13.996161150375372,8.35241995776738,3.0413223268225775,2.5376137047394414,2.1721875008373357
1,2,3.03466728044687,4.091522213182527,9.154064577822993,15.361928886261396,8.515852585450435,3.0416445209758,2.5895059690455686,2.3533329141761765
1,2,3.3075262512112205,4.205589544901246,9.321300893007626,15.828973725227106,8.914911883088566,3.1869520901571877,2.7295419905322134,2.5981729405678657
1,2,2.9854872515343818,4.692548443610743,9.446746681437961,14.901892944171985,8.528806057946687,3.3499074786305525,2.8206200036159985,2.5228292823351826
1,2,3.123593304722641,4.042706657473382,8.691466407462741,15.033286672909936,7.203456150531157,3.2011552070827296,2.9219895684447392,2.5582369618681784
1,2,3.007163029993723,4.787778040740872,8.818535932977612,13.392538549106401,7.055635912111707,3.1010805696760837,2.398120963565014,2.302841780212653
1,2,2.9553819012062883,4.718172311375451,8.815723364207997,13.960309601434204,7.081935066163617,3.3233748459474315,2.557232952660145,2.25291887246421
1,2,2.8886809641085747,4.194391763059543,8.806897933532255,14.068172197941555,7.470214403494728,2.9328353636439384,2.366562335980016,2.2030142681497225
1,2,2.9974195794675436,4.133574308677503,8.97917210653338,15.623348609370181,8.042252437044615,3.2826778795459894,2.503762460179684,2.191833408178449
1,2,3.016022164859601,4.214721292001795,9.450417600149121,15.766691720134064,8.555950221195637,3.656941597201989,2.579863456384341,2.2160828322520354
1,2,2.829851410674193,4.292876614049555,9.636708189288553,16.813370422773986,8.271808330869618,3.313967181697246,2.510725351179547,2.282221654928788
1,2,3.0231840739298685,4.188115799294444,9.8664564910137,16.736873188585893,8.067790975061286,3.1807063441769445,2.3964226868713565,2.1907224749604426
1,2,3.2775178215286345,4.129659615013309,9.632803078568411,15.011540254455765,7.523359093070286,3.3731779848602006,2.474107330114914,2.429668133298071
1,2,2.973610288165131,4.329664592861744,10.282785277085106,15.74614429098397,7.890668538301797,3.416288779476038,2.74953372415829,2.5280330060610665
1,2,3.2425948050803983,4.1694528912911695,9.60894359298471,16.239786646880372,8.381643358037389,3.8342230242643667,2.8650189115212705,2.7107331168942306
1,2,3.133549593503098,4.120132366129444,8.948124901284347,15.465980988991987,8.303214480994999,3.8482384348590277,2.7234367570649685,2.3905897200888373
1,2,3.401012169893668,4.183791848457003,9.00978320962491,16.121115802666413,8.234393978065365,3.77273748760695,2.813036309746281,2.504789165299229
1,2,4.021418750899595,4.384073751469502,9.238938270992062,17.764716299386812,9.220578406745092,3.800742733171248,3.0109870037824704,2.923877008885192
1,2,3.9560617301142194,4.278678596324494,8.370123476036502,16.794965797777444,9.181677987284615,3.9917792281468905,2.938854703515683,2.931478163633035
1,2,4.129947843859266,4.676499564762635,8.896809050879211,15.992749855376548,8.803091187320609,3.9764160566088704,3.029950922214769,3.018820651673149
1,2,4.184239547830261,4.70543476824201,9.830056279824342,17.627534774739917,9.434017316430827,4.114594681543534,2.9628902484255795,3.029773564289212
1,2,4.183237736788415,5.149843287707581,10.510298509607281,18.103365622551667,10.044153127269997,4.219538271178061,3.1249929524545537,3.00860374817486
1,2,3.4784095520576157,4.67057949124082,8.939633020770703,14.697868851757253,8.984371548172112,3.4609168166838855,2.6299644740058,2.516324321326607
1,2,3.435764392408236,4.416680339359436,8.929657960989772,15.562214053680876,8.40016490465545,2.9663340055288323,2.671013813865302,2.547360865272483
1,2,3.837039104017832,4.343111134279546,8.831743349486711,15.227019566733727,8.426858825823762,3.2185332519859893,2.892291351102744,2.6653246651969176
1,2,4.033984543297405,4.457349755074348,9.113729904703654,14.561758290934701,9.247795140825124,3.5502298609073426,3.0011921117719353,2.965834722698562
1,2,4.005781619575047,4.191931999867361,9.236356868099149,14.006553572804783,8.398123798923343,3.118178488011168,2.6945426592899064,3.0027434701870015
1,2,3.640367351979299,4.561134339620149,8.269406893660438,13.849985877499712,8.407312021264373,3.365164519229024,2.696599493941129,2.7108824281237256
1,2,3.1713274348683242,4.417374503514014,8.174441893689469,13.894403282549227,8.570797572339877,3.522033487452061,2.577312009458445,2.187244465122726
1,2,3.4391069365301066,4.636170164897877,8.720087322874903,14.50531599840396,8.867179117455574,3.6329648881471495,2.4441034337501093,2.163169197301034
1,2,2.9867053007667552,4.786218760849923,9.340471573817249,14.398526137044305,9.358554719121482,3.6828955554517004,2.509740122665123,2.1213518112822434
1,2,3.3104050631467237,5.030538280473012,9.100981241984906,14.660992014057834,9.71454736762147,4.04246672354562,2.5666492480419683,2.264177242753308
1,2,3.3263326686072197,4.842086691560028,9.090045862381928,14.287019176884913,9.527076996612537,4.131092699813847,2.467372553240381,2.2692335703251163
1,2,3.4486492182976423,5.096077549033135,9.389086267919911,15.231986142748077,9.853181026680511,3.8385473624628075,2.5121758713393936,2.480030133002514
1,2,3.4783379135388435,5.333255046613864,10.400542241575453,15.989977388472804,9.57015299198889,3.8506797126645607,2.652131893651059,2.4876435886811454
1,2,3.6319117497096056,5.131341745369915,9.73014945298791,15.821804034903217,9.04773946662592,3.74829816486376,2.7224455956228617,2.6318181420640445
1,2,3.6823367760683734,5.653199102082023,10.316964972808993,17.30125691121046,9.331301746032558,3.5446530306572965,2.7833116720292232,2.753493291340625
1,2,3.305565588016214,4.740619694325961,9.951899567056923,17.661381822614246,9.536270247427003,3.2074566162668,2.411696137936622,2.4307919598300263
1,2,3.0804715335717674,4.584005728964492,8.731059868585053,15.042409996167274,9.168394535526838,3.5915449308002434,2.258998586816515,2.4368246596537757
1,2,2.7329011720000986,5.067992935314966,8.65877491702154,14.099072647673239,9.067295119698596,3.683737236489539,2.2907605246574625,1.8659786518474957
1,2,2.500307029138696,4.750182513993367,9.08005685734379,15.759988734605809,9.17232164174447,3.542411406237909,2.057942781702247,1.8516229699179418
1,2,2.5395837090606834,4.781942666273652,8.191528099107217,13.606866846412817,7.948691923966618,3.3538157033146034,2.157273683519442,1.6405501085486982
1,2,2.639241260480997,4.680238212502611,8.101293315541609,13.568474694494967,7.882561526284382,3.32589694176517,2.080533479442878,1.7227612584454401
1,2,2.917055231110159,4.970802044706205,8.247826777450527,12.31952033578647,7.25803884054587,3.011869958507647,2.167457927516257,1.9165202461459887
1,2,3.109529864232613,5.020583197477161,8.330350415737366,12.93056508374288,7.541950160923626,3.347145426885124,2.364651154162571,2.155355886013637
1,2,3.0089242740540274,4.791544204991299,8.416247176146744,12.581570335350607,6.577128026522421,3.2571760171616093,2.277395927934016,2.007265576167922
1,2,3.165860987046057,5.532399509675938,8.887521725021278,13.155686323104732,6.96373901598312,3.4224370823490915,2.314045560733614,1.9089385940287247
1,2,3.0060588847219436,4.475479654863291,7.397098458222675,12.823943574415045,6.695665335379209,3.316085593425405,2.212189589860851,1.654892275636937
1,2,2.699728283668658,4.004809070566341,6.604010463901386,11.829872449622398,6.273159576502843,2.771869893283829,1.9172071589074275,1.712973992855773
1,2,2.709620950766305,3.8372116386462394,6.85454310938266,11.862017084483481,6.2953112036152925,2.664424093794419,1.8599441641310928,1.860775643862677
1,2,2.7984983863790096,4.216773468359133,6.7451946750984515,12.624974284869454,6.989629856993409,2.77058774254195,1.983845308183825,1.9127057223445318
1,2,2.8851406182503663,4.31611055275417,7.361399771032764,12.297174204958587,7.331597557324871,2.9425158532800446,1.9183327554152858,1.9737963259712354
1,2,2.8739066045727704,4.537813726353528,7.41392024203313,12.92463745485908,7.817789192160482,3.0921252460565642,1.9890628648922213,2.105267276861997
1,2,3.1738978556513393,4.475065891071909,8.423647729488973,13.482031567633006,7.63381818545003,3.153500062248911,2.243543969204432,2.0721505942387006
1,2,3.1655230775066534,4.732125447394523,8.705880240471028,13.261957552129221,7.303774984111311,2.7534762603101988,2.1429158203826892,1.9825820260056826
1,2,3.3613094545305673,4.919672764164479,8.954682682199463,15.00682617328311,8.294341737422181,3.2954627389320423,2.1975549876366136,2.3476164903379306
1,2,3.320796374346909,4.507075983726982,8.094133458049015,12.98985017771703,7.696109413102335,3.2661417594725397,2.1472190264225404,2.44674864408509
1,2,3.6970055045456887,4.429281753799028,7.998057851711744,12.677619034454583,8.21720513832828,3.403822584108506,2.2367844223303264,2.5626116421423863
1,2,3.9737204992356694,4.323740945022092,7.803457384583585,11.574148630571301,7.92579619605574,3.2979978805144774,2.488061680101518,2.804811229374707
1,2,3.086801780877621,4.788514879330635,8.184405797762835,10.648470793374326,7.7158046036801125,2.633225345713014,2.1004481393803225,2.022423279079527
1,2,3.2310340823695975,4.673662923088207,7.464290842722057,10.78532707863472,8.311894676752456,2.842179113998065,2.372142077779993,2.1869007647038883
1,2,3.056691216377977,4.884874890511069,8.048015644592198,11.036222998417552,7.707699294626053,2.587021633896409,2.1111631171997822,2.0825193041398244
1,2,3.1141024908999473,5.313515722094452,9.5819583590305,12.349540595677306,7.700068662430114,2.8749741788124323,2.162253795617433,2.028173623899287
1,2,3.3826722615856473,4.768646582371964,8.551567575825509,12.70257100590428,7.9612647266169265,2.7793446240218462,2.4797298424075627,2.247436973337457
1,2,3.173922215376311,5.052338369482942,8.640462723456967,11.954052671385279,7.735285751610396,2.7547601776559185,2.46163393267739,2.118028850991551
1,2,3.392774430784671,3.764233299656449,7.011818498861544,10.827943543931886,7.565345023390744,2.9504894019340657,2.5490269872702256,2.234522209617781
1,2,3.7346932307798735,3.7566739704869945,6.92224690995693,11.662178238754414,7.958718347119077,2.9299242025384094,2.471206330296475,2.3979568503244777
1,2,3.5974971661399264,3.81310328872156,6.5364379397002965,12.6176922186221,7.146620044917667,2.9032149318533738,2.530008818313997,2.471978697953313
1,2,3.810389842076076,4.088457917044313,6.5534287852057895,11.310872452638426,6.975584654955187,3.1324290316608354,2.7071109783111886,2.6493473915577503
1,2,3.7673685571181226,4.275955172048698,7.179216770079014,12.043887863459332,6.997294404580469,2.9508923330124106,2.604282080092697,2.74236851656023
1,2,3.994220798612214,4.416749050074096,7.332238179191829,11.958947171197726,6.783526525619895,2.9055387481803425,2.5596481581155697,2.6852745731385745
1,2,4.259661020350669,4.748314963211672,8.066133417431782,12.45392854234589,6.993924114864731,2.9118038978131606,2.6472963063258668,2.7858383480733555
1,2,3.974289623072424,4.591754227163028,8.054863641960452,12.216725869731418,7.3975283599595105,2.957141460732677,2.7552071465830115,2.5735442841878737
1,2,3.5371525366000114,4.934218526601037,8.820328315833887,12.478346898730585,7.543563870436989,2.5040881078573127,2.1383680224801864,2.1098321328008103
1,2,3.5181580007008835,4.846799456717963,9.071142051132675,11.729119747514098,7.055239398552075,2.6378590621812767,2.222906532505582,2.202086628749354
1,2,3.8791304010455505,4.539455060606581,8.244878352403562,11.232618886323086,7.616934303733838,2.7947104764776993,2.334907640042113,2.334934970558844
1,2,3.3915861456368153,4.38714158803979,8.857319660190033,11.165889434839698,8.20023764881059,3.1093036960284945,2.468090591613542,2.318172623033158
1,2,3.066270488891784,4.681949876709253,9.141397302607306,13.02601673158704,8.914948395818946,3.1468828513105427,2.2354621220006243,2.0878587560904047
1,2,3.1772331305073847,4.926147297683018,9.671329349095606,12.469400369600857,8.549362430493929,3.2672085918083567,2.3209599281232163,2.1503253189268605
1,2,2.995903306248336,4.583821546124912,9.855781521940468,13.356782918058062,8.36282258164908,3.322836194909242,2.4316253071976286,2.217903072483144
1,2,3.4687358485701085,4.957714583254801,10.272240402236317,14.3347812230427,8.568683527004897,3.690472545573343,2.416821205647851,2.525966281159301
1,2,3.2400533324125793,4.803718359633273,9.700110341720464,12.54290596277346,8.666204043253373,3.6571113473412096,2.257381364958416,2.4008663469673754
1,2,3.062574086682782,4.702298107354691,9.365788015480977,12.709690904078286,8.678108856182575,3.711106689663252,2.3593994689422826,2.465821757446974
1,2,2.7761830076128837,4.29690706633914,8.802483102762274,13.037285922786037,9.359879092313905,4.069846586406517,2.312203929113502,2.369074227081426
1,2,2.8120738807213934,4.321817975994672,8.619460747439287,12.35133068883396,8.252555431870078,3.6778502671004354,2.395239667551186,2.335016101904418
1,2,2.8464892925976297,4.522646696019186,8.833894739984622,12.188325240745918,7.821710276861471,3.5759846295892985,2.2029097821377817,2.24163075145305
1,2,3.0437058993764095,4.7760743550467755,8.850489389144242,10.784053582429701,8.064736975245202,3.4623589452085786,2.3528231812504856,2.3333201844042852
1,2,3.0740561067565344,4.35615450948672,8.580312499680621,12.037843588919758,8.554834628120696,3.6958265952451357,2.4557493606237144,2.4575913592304315
1,2,2.829520855664355,4.334134667925903,8.31268447450195,11.711791173868908,8.966270268007607,3.7124906698754825,2.2348288756660644,2.394219970825666
1,2,2.8872313840519284,4.082544239804199,8.893672147189093,11.045901484621814,7.876799258089305,3.3044824574298803,2.513479999947137,2.319996653560175
1,2,2.977660562848128,3.827410017769159,8.135259844226258,11.537936923404121,8.368437464844579,3.7559483570708347,2.3593622740719304,2.3559539870670885
1,2,3.2052114124432425,3.9684394213838874,8.223150377644405,12.339604933678267,8.68116682285589,3.5829642142263527,2.577185569499333,2.6544675503007205
1,2,3.07876177223324,4.000073040670017,8.850782547324394,12.232129687516556,8.875595234277888,3.4648658233912797,2.420657334621174,2.5662515449519643
1,2,3.5269566913921273,4.142207703576605,9.320426754547414,12.749068169832645,8.972723384147834,3.4952549811096967,2.2609590704741254,2.55553942772664
1,2,3.331602209755381,4.08137226365722,8.910452689615624,11.656339477512613,9.09895013567853,3.8991482035571363,2.4249408784503923,2.7070941606862444
1,2,3.745366549847936,4.07324987913695,8.410203204870406,10.861039637209757,7.6140722642108924,3.382775931842521,2.504956102525124,2.769342309917958
1,2,3.6828684546397663,3.68235683807148,8.599250188539344,12.872135083868649,8.091723413128971,3.127473005804853,2.4893069555946794,2.6187387034571916
1,2,3.8248288145082068,4.087552985938192,9.09196929960778,10.95699656511811,7.118434076128492,3.452991860822419,2.554598545638625,2.815645921895801
1,2,3.9450787057304306,4.126655667002672,9.31659026470736,11.340590026685286,7.173280475779947,3.335987692646341,2.618933727318434,2.691170941018292
1,2,3.6250159609491415,4.314434446641093,10.077551319626151,11.167405545870462,7.724825526955932,3.466887402681919,2.636491672853746,2.514005732267146
1,2,3.300234564730006,3.9034638800471586,8.93244544622474,13.056575860331778,7.124469339948665,3.2204573954784363,2.5376685725995203,2.2589344530156144
1,2,3.4705725865158423,4.081632052815726,9.479086287423986,14.245495568315699,7.649046640914635,3.0509813910624057,2.5511696177643213,2.48608647236563
1,2,3.8560176296394624,3.738874541205468,9.14261129377718,14.632425451801915,8.088936442446279,3.2123980212805967,2.65031643797542,2.7149580916481177
1,2,3.5464411393220505,4.196868488258798,9.074077382490914,15.976127179789806,8.135533567823245,3.1990480777636168,2.4931671950653356,2.5637921890690794
1,2,3.6688237059090696,4.160108509360383,8.913889481913145,16.94208311074825,9.10338121455133,3.421229855714604,2.645575476591791,2.7117168669425378
1,2,3.334318611802091,3.9425920719592473,8.837627495690388,15.461307408221062,7.980339825725372,2.9868656905096587,2.451727825655498,2.465349927777188
1,2,3.6979654451278248,3.914411687663367,8.605373539893302,15.504297934905058,7.443603277558792,3.3281710922546854,2.6265689454037724,2.7351693459483823
1,2,3.7986273770864596,3.8469765011951105,8.35010292425155,14.361653149751097,7.14033888090841,3.05095471579397,2.6499911184876743,2.887552122517631
1,2,3.8331657314143954,4.087486597473246,8.350587089681623,14.348847328436564,7.3265540888483,3.050438008160146,2.5868816218758197,2.8100053047621554
1,2,3.3295096842691225,4.102708150657492,8.658862896038393,14.630922045965981,7.444031280228887,3.4571294568003914,2.500661570387034,2.6837241923666846
1,2,3.185749928705082,3.931363812548069,8.567367274632973,14.67943140356223,7.937593554205721,3.220289846892723,2.2525010955357923,2.374808147374731
1,2,2.9525208101519165,3.9999345583945107,8.022063323360522,13.08138475254619,6.994170546034888,2.7253935866274754,2.1494580254870823,2.380380028520215
1,2,3.203434181326608,3.900118491392476,7.710077659190881,13.476963960660601,7.044581496709576,2.665760973825138,2.079704625322509,2.4069491751114342
1,2,3.204718264582889,4.040803734261401,8.309090720945429,13.970782879495536,7.372295545107062,2.776421919405851,2.085446578038324,2.44731188219816
1,2,3.4051338842316654,4.435494313497062,8.48393749677286,14.614386096568282,7.443053754798924,2.9319993631150143,2.233493668403162,2.466179794778825
1,2,3.7076773811067736,4.482778884102658,9.080514824423203,14.871014627840491,7.100494100878081,2.8424666900796534,2.4730137698490466,2.6811452366549937
2,0,3.8202115902846385,5.750557757594455,13.865861877433176,25.35756519768404,19.249654254271086,5.202817909151844,3.118215394835597,2.679089676308432
2,0,3.720479937989872,5.816591771496119,14.17373285175593,25.983242486915653,16.56976407092354,4.611427274692401,2.990289847313697,2.626535164512713
2,0,4.037345029444414,6.43556411639583,14.38579839710847,26.38326055090023,15.966193352041836,4.545715682695267,3.0114499685071623,2.6362483152485052
2,0,3.9392147146852765,6.377382342005682,14.478337312795437,25.39050225102382,15.97912688923272,4.8542082896906456,3.2451910123041747,2.903581993871708
2,0,4.134559197416723,6.452962764689209,14.879298573334722,26.68338466293515,16.96488270353753,4.621053835546059,3.3908384256896666,2.93706547440695
2,0,4.431112591201052,6.469209265113349,15.205811292950477,25.626551517474258,16.518903934886655,4.950144667602719,3.1172803341829343,2.9594038155171134
2,0,4.566283239010958,6.773329828510924,15.604853074377186,24.704815260774385,15.796139226236141,4.630732342864211,3.236868020624324,3.101186948187441
2,0,4.9033040032283814,7.058771654238415,15.473315953594556,25.921224455799678,15.030402961717755,4.418200809940576,2.9316437944121554,3.1060239253590667
2,0,4.572282132570535,7.327411703784064,16.019116812707885,25.798927725336217,13.852123716608777,4.442827546102292,3.1733423908465275,3.0648310936223355
2,0,4.637992119307891,7.392302140492606,16.248028914846703,27.282721330127877,15.488434804282312,4.744878232213296,3.2587271990873283,3.1348917238868723
2,0,4.44514526901693,8.462507153228572,18.311128385083542,25.87113450097427,14.68500434764442,4.565015445882572,3.306439089747518,3.023372114021326
2,0,4.438914064365723,6.972863314770705,15.866311165483827,25.517636988670933,14.341117341091723,4.835065959553118,3.198746237158682,2.9914241170788305
2,0,4.568617724916295,7.454127011173274,16.56805582335278,24.726776406606582,15.628086479346047,5.053842257357956,3.5542204907113324,3.137958886082173
2,0,4.774321168426312,7.326751664596638,16.003098817151624,23.738956699314972,15.377638266058872,4.657639197508255,3.4372306942191804,3.497218687426822
2,0,5.141067548497389,7.048503861248723,16.07388600475668,24.840174957969253,16.047460883247595,4.9553032847817375,3.7240055055803354,3.6339601788823237
2,0,5.379672397159798,7.708622938777715,17.492034818813956,27.250055355440864,16.821360369075222,5.154209028889568,3.7528040656270916,3.679713514826042
2,0,6.17865647864862,8.591783358799642,18.96566109319539,28.3848005971275,16.795814621846127,5.032576828267028,4.210483013033942,4.0807097624399
2,0,5.295573425303768,7.760505856229716,17.06866043731655,26.420889817310634,16.492576006129376,4.073921816066102,3.2361137894038694,3.2657771795553994
2,0,4.28964617496467,7.344630295785729,15.752393682987575,23.556296998108525,14.640927688341202,4.024563579356258,3.2977835268321063,2.7307462010262866
2,0,4.622280042026366,7.6038876392200665,16.707772148003414,25.39650879830949,15.876731778054717,4.235948122562928,3.324182256500389,2.7967348935084666
2,0,4.670977144611151,7.220265505032427,15.092088774032806,24.493594908732984,16.540630001270255,4.374066355974009,3.247124196079686,3.0670420242280563
2,0,4.467944976415484,7.001998404623735,15.634829661125753,24.073996982993147,16.120019255922625,4.7576928717227105,3.5684665455464213,3.1523895418558676
2,0,4.635072557699166,7.063773799779637,16.830367792288822,28.11011505475147,17.657612816570314,5.338045085312615,3.72923326958224,3.5804641296409754
2,0,4.242327794017376,6.939331730952059,15.971525014066605,27.883430295240032,17.518308735460323,5.259148540960755,3.6261806560058907,3.1672292126049197
2,0,4.598603087124456,7.000595625442476,16.10303517304904,27.638993951827942,16.497874938699013,5.0201130460596115,3.8023825463350875,3.3871609417256967
2,0,4.533965213128362,7.563903551866427,15.356971156847647,26.435184836222273,15.655790368863526,5.286037970218887,4.0464898763939825,3.541298967842248
2,0,4.461747977265318,7.525524240193714,15.728268741568813,28.487875294484947,17.246789233125455,5.508114199932592,3.9801796101881806,3.2506276728524206
2,0,4.338266849918384,6.477815917629274,13.930608889031491,26.1313760367003,15.79057227843544,5.701914966004354,3.9888673610859935,3.319457411798559
2,0,4.3178460692342675,5.848193548404422,12.399033481199856,23.64898603534188,17.06300756383231,5.447282208605161,3.973626426905096,3.3762156494543043
2,0,4.56412531317603,7.014775475018995,13.861109440500524,24.19085917916664,16.1530127876974,5.682214686243921,4.032646517092308,3.367492272435273
2,0,4.313443956434667,6.654703297375052,12.986158843739938,25.05285694934044,16.397017591466906,5.5673958759827595,3.3108593044066663,3.1683637427841007
2,0,4.074424177029085,6.762438635721528,13.026831185361111,25.702390299339104,15.898037215989161,6.080081260910739,3.845721995399752,3.367089720021809
2,0,3.822371104654766,7.554559409142739,14.456391709263649,26.893528075871526,17.95128567178613,6.413313340013525,3.6778154963763807,3.1737919137452777
2,0,4.0703679366629375,7.772385040533722,14.931824182781368,28.048484169857932,19.79380634122211,6.149519317907951,3.459123770204259,3.1099894373595127
2,0,4.3267597590370555,8.237514503199737,15.232280592805662,30.790288723657245,22.453240780271233,6.613984848390558,3.800527407701579,3.467689934615495
2,0,4.306777670270871,7.386770338944338,13.017501697385942,29.191653094928938,20.589635225540253,6.011328680779921,3.4301628173885557,3.2716196120280565
2,0,4.790697969441805,8.207990510270418,13.956105422369347,29.115021993263685,20.514712768786215,6.651862630726745,3.861448226360056,3.5028962583665595
2,0,5.013273199741529,6.35489194279331,11.112559081584,26.07570937406967,18.19935079466071,5.4099927021416425,3.819957453955551,3.544062646059581
2,0,4.940800929366033,6.173860060442959,11.799644535205,26.17237395022022,17.970469683095136,5.4550847824019835,3.8744133232286275,3.433870963294419
2,0,5.124181165336509,5.7196332389261215,11.005317839932372,26.815086255958093,16.846733985268624,5.358851265715603,3.710807846545043,3.619576077282311
2,0,4.64496486432044,5.9498549736164446,11.206707282010486,25.751496169225728,16.727946586595255,5.592744661291466,3.7590292659926416,3.331180455792383
2,0,5.099657756811695,6.386042254836988,12.401341799546936,24.112665071523992,15.906855811749546,6.059237301028563,3.976358081988998,3.2406162226479607
2,0,5.176290385663164,6.837014835369576,12.409953628693291,23.272176571861984,15.560143424316054,5.9967135766672675,4.209472240208562,3.382953385023735
2,0,5.3895427419539175,6.383832591520358,11.872014456773925,22.6650152951676,15.745134933811018,6.35217778260658,4.467573756551825,3.5768830150165924
2,0,4.916366043516854,6.361359096652607,11.676495847733351,22.21622494508185,15.996181623501592,6.214632684386563,4.237180890905101,3.3701653217280794
2,0,4.731585407387545,5.950850012136226,10.83110834365062,22.62502835588467,16.616594535551254,5.725759832159545,3.811788585184431,3.2851490664586493
2,0,5.96171808045207,6.842224866441442,12.323344130920304,25.185274027543496,16.41824683096116,4.92348705730826,4.06005951147411,3.872974799219395
2,0,5.030036126493936,6.87936152525289,12.255320629262025,24.82363371009937,16.259889113301902,5.2480257914512185,3.8901662907073327,3.2418462554140177
2,0,4.1735424275746915,6.199929152491105,11.600622345479708,19.67828665318224,13.164368792637363,5.018007221495979,3.6904673514837003,2.6688350616124246
2,0,4.167313025756218,5.9890905770301845,11.741555396545285,21.782451617207883,14.20664253862881,4.69052257553083,3.4863691091198916,2.8378039712068093
2,0,4.455004138370823,5.9569981184228515,12.133220795898739,23.613006366048484,16.134200246610824,5.050188783787277,3.594488115813188,3.0417428465470513
2,0,4.677456069038648,6.024314561783405,12.409659535389785,24.03431387628717,15.829947743237426,5.09659492246372,3.56670464189491,3.2479716543346098
2,0,4.5256854431124856,5.997897477225382,13.147269267274678,26.552378463688715,16.36516951924109,5.2341727541270275,3.5588305954177826,3.1889966260277203
2,0,4.628414409078662,6.1189551656323005,12.117660422994904,21.76304683805492,14.833913312838943,5.027287927826363,3.4828250935204745,3.1848152673554315
2,0,4.7875125523048805,6.478866171050397,12.30470131730094,22.57074819123787,14.78826599337065,4.991775586550198,3.7026032494318617,3.395964245789815
2,0,5.329294465942954,6.6845773257356305,12.723712589466574,22.296670204307542,15.223241708220149,5.320222168968333,3.9677713215748835,3.7944831346306005
2,0,5.204147872518372,7.2322028559042915,13.370304614877888,21.29862153255476,14.578176031781283,5.846391799078032,4.042291889605542,3.844229875784534
2,0,4.664181615561395,7.37974410662581,14.117480157722538,20.006033675296766,14.199201650782463,5.81231505706006,4.155261725145765,3.411480113319438
2,0,4.836189972088173,7.106210927473881,13.35809172203817,21.021150691462704,14.490992844564136,5.146630424163231,3.5777247628107114,3.3857121451362904
2,0,5.068247494267401,7.413072585466623,13.161123805027833,22.320748051230048,16.14822496512222,5.446422962458272,3.759134968680907,3.4463337873582427
2,0,4.990388607112917,7.499475517197749,14.001779160124649,24.19750174817672,17.194344221333704,5.62459113163695,3.7246030247316195,3.480232729461328
2,0,3.980739063551439,7.135959385316623,14.035783903847541,25.562812785258853,17.448747033932566,5.161452565656588,3.236780178146974,3.0889849930920397
2,0,4.243129753997229,7.504693088965554,15.020042018476722,25.145769832871668,15.240817409565569,5.36153670975275,3.470450454381014,3.2215455095391623
2,0,4.578562830676223,7.535906389309331,14.7010161575837,25.050770744776855,14.813651023999386,5.785605643235617,3.6665607875885255,3.3043755719091097
2,0,4.727713618215526,6.782193108721205,12.916665897343819,19.25226142350618,13.367694334357994,5.371145380816022,3.598669609379179,3.4858137649099645
2,0,5.00993917910507,7.492408663422403,14.373929802261408,19.906308088252768,13.987607215762115,5.6994672840776754,3.712254738022679,3.582519416473612
2,0,4.099291979834349,7.340579224852257,15.092806250968218,21.32568115237721,14.454786603254265,5.6393131457024195,3.401943974719223,3.0255993065801645
2,0,4.242211349258545,7.080238199494877,14.709754062163883,22.59019383067999,15.064750397697848,5.685544081063186,3.456889374986695,3.066301735555184
2,0,4.1666998380139715,6.600612656415869,13.571121376996247,22.272462096948995,13.57425431420798,5.006090925790435,3.3747383860139135,3.032557401675513
2,0,4.384532069942693,6.700396486179797,13.608600097634191,21.551581790547406,14.09129575639598,5.44381944091204,3.61385086035946,3.2649703164490513
2,0,4.518236204754424,6.334978583380745,13.096301382862348,21.21059599623341,14.360406503186825,5.462326641966584,3.5943181592074906,3.308752799215839
2,0,4.03259811723187,6.431696649415455,11.611813370400878,19.32380312308671,14.103054113345674,5.286738608024778,3.599437927306882,3.225891088194024
2,0,4.241044906997025,5.863327371740956,11.888806687381216,19.292672480115865,12.982813110567164,5.102347462146435,3.660158216524711,3.2496752334107395
2,0,3.8603044449285275,6.021965159063968,12.863529926501679,20.440948746356725,13.280160364050472,5.337816711272107,3.488897294987929,2.962921171355456
2,0,4.321452645965423,6.360029210945679,12.868789460918645,22.03023883942229,12.544767966976933,4.61629578345609,3.058713160692014,3.037730546257444
2,0,3.964125114359274,5.919651040739002,11.478270420629437,18.93624321363447,11.950014146274903,4.436398202159755,2.815524868879316,3.149369592260307
2,0,3.9269115325711836,5.522043330480227,11.533392921104953,18.3579757254271,12.409106618202978,4.5066735172395616,2.949870790622636,2.9718787613615554
2,0,4.241087944845961,5.595766257594833,12.22218349395976,19.174241277178204,13.59139608247363,4.819407253889897,3.0553587688642665,3.22721320165609
2,0,4.557313579412551,6.258241599025904,12.384047234621987,21.55143880996705,14.557412674709228,5.327694006991011,3.2721649448492034,3.1411475770816604
2,0,4.63110843810206,6.527200287293487,12.831288077456241,23.50476559474896,15.07216011658718,5.804754967395536,3.4233186190176172,3.3438599140330294
2,0,4.60358511073228,6.678117867570036,12.791921576744512,23.170010987281003,14.452969925543231,5.981780479383067,3.6954818041849666,3.205550286673543
2,0,4.503606462091833,7.010369469150398,13.675632023407932,24.5007324552718,14.909650458789956,6.325450259659045,3.670540451002455,3.036712678262193
2,0,4.841882757037917,6.9921503925741355,14.644291879211275,22.902980200733595,15.23491506203892,6.376879415771348,3.848032577684137,3.24837511528371
2,0,4.765812812444015,6.815773033854191,14.681250608832178,21.02348327929977,12.766116980915411,5.654938698090462,3.4994762309765366,3.2730191176472614
2,0,4.877545642947771,7.712202821330447,15.848009488919837,21.10036266178286,14.67035842947074,5.9726369338379754,4.067580452023393,3.3861571764025276
2,0,5.0197102360372,7.0477067324529745,15.58833259847024,20.302140908540345,13.028701707240128,5.648493542861102,3.9612153555166776,3.5515074417180315
2,0,5.248104390316471,6.791690133252552,15.894391784184984,22.402725308137224,15.189769589044252,6.022753634902599,4.241845385089344,3.576059812864315
2,0,5.047067317630807,5.453397433122329,13.440493273435061,17.36636863691952,11.160571998045546,5.049897568416659,4.215872080508148,3.8725814687144973
2,0,5.243632279275365,6.119230443431565,15.147617579172778,19.295068878347383,12.490971724146723,5.202412912109077,4.154850454308193,4.033958147797218
2,0,5.940653873402322,6.7688009786440695,16.603032162417758,20.03855048613917,13.487007938068198,5.53847668220366,4.511069443486657,4.393632621206988
2,0,5.457651002816293,7.624295289376562,16.488218441669016,19.55099022569587,10.63009863132073,5.851770438999402,4.105840769398729,3.9559479843144674
2,0,5.215532333955767,7.628184505779584,16.66450155283102,18.073990316784034,11.859239912594868,5.175784190664802,4.445762637043876,3.78803339587487
2,0,5.391358701096644,6.74641135415428,15.34158053688474,17.317259521407777,10.883894377108845,5.309681702214695,4.40271433984313,4.10819384904719
2,0,5.074777162390432,6.785148670643437,14.389845483419558,16.43238860367391,10.761064531872325,5.029211854643324,3.713995187960959,3.412252820289603
2,0,5.1248849267587255,7.117288088115056,15.13460492257008,15.257823316556022,11.63794504337689,5.011922309076245,3.9344981752129375,3.5154822582742895
2,0,5.395619645650647,7.41963859950224,13.752456151707035,16.207444040077647,12.113770367842111,5.407878755221464,4.083342299711421,3.682806897280637
2,0,5.7486674834816975,6.551892132179548,14.154969280318848,16.52698044146095,11.84987538163583,5.367019247072277,4.192235253666406,4.047784161489455
2,0,6.152229103894081,6.175200075871601,13.21527942919181,16.63896763368205,13.002453060804395,5.7909449599667004,4.334732757430869,4.374437049192004
2,0,6.199797172632122,6.511928225658979,13.572281687662331,16.5647421184935,13.265194191085552,6.070641646579571,4.323256931952938,4.409824401273344
2,0,6.564762705532837,6.853639975038854,14.61178459169899,18.32332477014971,14.192148175498984,6.478554904482992,4.671529933923873,4.565532338555506
2,0,5.46361055312798,6.791043211221759,13.754236602494494,19.217831600873037,13.617338180849746,6.207662021393001,4.323673258017794,4.157969314393572
2,0,3.7999923731062446,6.25774642223166,13.558705257135644,19.278076077373335,12.938368588978287,5.375892126897847,3.4526671820093204,3.0931370790963237
2,0,3.8720097113147496,6.991894590115242,14.111255780284012,20.6542173039426,14.21532364603201,5.746709816837506,3.482217586920013,3.033498139996226
2,0,4.337014366730244,7.417094005764557,13.940082240834071,21.21955106345005,14.238930164698177,6.11666830566497,3.8025494538640663,3.2710717689820847
2,0,4.646831958600007,7.261463088649107,15.312574842925708,23.67895601356475,16.350340856478176,6.4735610743907985,3.689668823122898,3.25013293425913
2,0,4.186650908645009,7.278430886578589,15.912179162878559,22.82886989123943,14.911791847934238,5.620531433285033,3.3406248141264077,2.875778683121481
2,0,4.666679624655473,7.3138911931847055,16.10340180006865,23.945291445060224,16.056530182184947,6.003627395434692,3.570847236937628,3.131969007466189
2,0,4.162692656963074,7.730098682968722,16.634603110411817,22.140582936565913,15.808657901686063,6.135521456154034,3.61769874043833,2.9014321310142375
2,0,4.2139647939923135,8.229338725210967,17.040609477497195,22.44833531669322,16.072561329488607,6.485091582688637,3.908553627306462,3.1310984191039277
2,0,4.690324104590195,9.306136273147251,18.635503339705892,23.38852809270969,17.087587050227672,6.858694685899488,4.687668240680437,3.4919316857726965
2,0,4.46985992628156,9.175527107806627,17.731601976898514,24.03499753262846,16.80881881155998,6.246964720944873,4.205321799616877,3.3289785415405224
2,0,4.647224986642313,8.932458231954653,17.06764720751842,22.035897941156033,16.62067105580961,6.9467609228444465,4.895769085403349,3.7326252397196042
2,0,4.816708957012494,9.71998148126732,18.030717467539493,23.255683139062697,17.964730031268175,6.723047779293184,4.8146873438346365,3.7919571374611207
2,0,4.563470661082544,8.933085650862738,16.287605052386944,21.416810867244415,15.124197367259532,6.041948734061626,4.27795013492155,3.4707122988984955
2,0,4.892996405001237,8.902137568040647,16.71552132298425,21.343332002734478,15.216878866781773,6.464588197246384,4.661621798694636,3.8029246949051263
2,0,5.406907854944448,9.98713516189368,16.411880842867323,20.302870962388482,15.119067904812937,5.764007470184383,4.684331616285734,4.0254366383033195
2,0,5.296055640809124,9.373929820750316,16.36953268317371,21.253095156822077,15.114695578971634,6.038137666594573,4.538210448716415,3.7433737405663523
2,0,5.330229324049799,9.093864634628986,14.951676403615576,22.75670689055218,15.980556101631587,5.165999513348146,4.193466360061789,3.803203055694828
2,0,4.703331496882206,8.270757496426382,15.41080117799721,25.486093167096527,17.051728554568797,5.34798589800909,3.702478115904174,3.4389991384092298
2,0,4.847878421922652,8.139654095153157,16.158761030768872,27.114918199148757,18.356118001127566,5.525409790888351,3.712696142393631,3.577588646488453
2,0,5.047394914655688,8.847275219266821,15.972259503519274,25.933260806024528,18.83399642257888,5.188135743367153,3.298120576573628,3.2635955702413546
2,0,5.384156654004155,8.535952383514296,16.06044233293054,26.89879060008958,19.0893256037054,4.801703970644054,3.448199943543604,3.433295338915006
2,0,6.243681184850644,9.409715954953391,18.34563725806934,26.826051362399735,18.50399706155452,5.229405820936775,3.7831106489038384,4.016675277434512
2,0,6.264973134497508,10.14015094270521,19.912912595524745,30.937813780057265,20.75823194646945,5.684045853004525,3.5915619616370105,3.9332399816943626
2,0,5.504666237562039,8.87479021394377,16.982309632532097,29.611799429079205,19.29951207146294,5.03220486277549,3.1253119946528463,3.371156392002955
2,0,5.382468548695177,9.21991457237239,17.43710386566745,27.679793746729572,18.595220221821,5.755851315235824,3.424421857086448,3.5412119026470625
2,0,5.794767157493459,8.489157430371142,15.209348729606198,28.361101214349205,19.091041796537628,5.251697971309462,3.4460959918992327,3.5182342978288874
2,0,6.108547838298345,7.792685401727812,13.843581572419279,25.87453317968505,16.222471073133022,4.628617239974938,3.7823652225479276,3.691016649050294
2,0,6.372800201868577,8.771398439358588,14.975879787767495,26.542736215811605,16.816452135611105,5.180437631853823,3.986893226250348,3.7309899290206268
2,0,6.119751503539766,7.966920739382752,13.542413898025416,24.86762466600272,15.109737745475702,4.853953857435599,3.703698463827686,3.6724781432880342
2,0,5.011764173693318,7.681709912198606,14.251861263480869,26.0025548592579,14.992747757482661,4.559550757529213,3.271550020382634,3.210035265013602
2,0,5.233354824134313,7.819217182163764,14.230262358874784,24.56732998396764,13.31348665083726,4.372963493959105,3.4898179038813275,3.212665202661895
2,0,5.207958934087325,8.105468933870439,15.939887656076126,26.869715339269106,14.412749086321426,4.728022308317797,3.467853417336732,3.2530490250651267
2,0,5.0309363476336335,7.597885202409341,14.580556972452172,27.583229741630255,14.929392204611137,4.603201691487632,3.521012349815592,3.4623524655891122
2,0,4.973446656394041,7.817848931458335,14.089990984607013,27.180463648169127,15.731795905012692,4.908096626468996,3.6092299290883707,3.394694512979416
2,0,5.651604292878237,7.887148824136775,14.838145666413583,27.04563314494342,15.945454889635785,4.607741430205917,3.5719351614852526,3.6250448002480518
2,0,5.010235387938861,8.08378160744412,15.192269474657783,26.78508876598614,15.20767484166099,4.360539676650277,3.6287401201376768,3.231108110223579
2,0,5.074873069398153,6.876605891703117,13.19067850665473,22.186981294090636,12.131945276217087,4.216855910005175,3.8214975427564664,3.585814742935751
2,0,4.507387754912914,5.873453026580048,12.578457761615915,23.910954469670212,13.026331019522061,3.3744982480119416,3.1768492247900566,3.239964268230442
2,1,5.554661980994452,9.296145241886757,17.942761277909845,29.306355009479812,20.71107140792717,5.778275203733172,3.9814419484247145,3.5297679886089823
2,1,5.970681407214294,8.584316925210512,16.546375502273616,29.116166605129973,22.47517005608789,6.11647272749011,4.153230279988969,3.7943792138910566
2,1,5.922105385944333,8.717238176011922,14.715994807953535,29.31651881162816,22.19823836090778,5.903749220334451,3.769260070527472,3.436462247266731
2,1,5.8141554586889805,7.800114691377312,13.726225421951796,28.205813846395984,22.964719940115124,5.950274086982947,3.7970708944224625,3.291330079359826
2,1,6.211694925117726,8.362852915079682,15.232536942549284,28.570410683398173,24.9390061264436,6.4604077951523555,4.3024709055513695,3.798992967114225
2,1,6.686458927943759,8.17261257697243,15.022783200182042,24.7815764143286,23.34245914139974,6.001241625152486,4.817599354746769,4.089484835243769
2,1,6.355927437195724,7.444814578024629,16.252229378265433,29.6400200055254,23.83726948637216,6.549670614125736,5.0252315152094456,4.190454190817993
2,1,7.554886898660981,7.658202815528468,16.29823087829372,29.616907896891593,24.686890174733133,6.892485498593714,5.313042014573124,4.6607716134420505
2,1,5.436510281367094,7.220160264764716,16.276485396621155,29.005214487984237,27.124959530295683,6.647449803910072,4.2652151182127,3.339771354698646
2,1,5.618061739379706,8.469987871676238,16.94132754887877,26.622628746601805,23.546288393185744,6.142075682514482,4.425696092690615,3.579556651158143
2,1,5.580093085360577,8.729285790968069,17.71561105132998,26.379181376688138,22.707957054434804,6.006461586483268,4.644070217950574,3.5029095447423524
2,1,5.599246716593773,8.221408833441417,16.37994138044521,24.777254589522585,19.892372679483458,5.662592473714843,4.771616999775896,3.630518348940959
2,1,5.82054406810136,9.28636381728068,17.973606143425332,26.466687447961704,20.709371963196674,6.530767681016859,4.651731553355511,3.610868985200348
2,1,6.024278480100026,9.347998985983118,17.73944318592233,25.5108518301518,20.262123830011433,6.068930208588483,3.751451187532381,3.6278050594420135
2,1,5.864713891113828,8.495392244640811,17.726670394374146,28.334245428126522,22.730524021763618,5.385006383819209,3.746669584878889,3.787261836286266
2,1,5.002575730828641,7.000930430994442,15.763019730048786,25.598490682970173,22.341486310586195,5.0989281263514314,3.2809537929935573,3.12492332234188
2,1,5.240233140681837,6.169982983742577,13.38680921572712,22.380630132911076,19.199357779620215,4.054160151392403,3.1964512319327674,3.488975867520427
2,1,5.6574879142046095,6.200828434452772,13.970235988876802,23.005252763218795,18.536381404122196,4.797439028948977,3.425602253119518,3.4134264105452425
2,1,4.980591323172897,6.032459559152015,14.637309053383811,25.774463134173267,17.686781954618205,4.736562186539002,3.3884644057248194,3.1412751808915864
2,1,5.009205506596125,6.728228883136073,14.94882736640538,25.87440998568565,18.549750304412512,5.269173157193542,3.5522606672733312,3.2058270714977786
2,1,4.979676790996299,6.651286598101643,14.1701641070432,25.35577867425741,17.948534667246715,5.2761770361531095,3.8690807834490832,3.288035033360592
2,1,5.136660420153661,7.273592835761727,15.624337181552733,27.23122085446198,19.41846689981361,5.142643280321879,4.010311671409351,3.2874730968089825
2,1,6.137231309461052,7.326043241785405,16.305348268994006,29.48001922204324,19.04411551263287,6.303175521199923,4.635730086312026,3.5771209035790466
2,1,5.9443620120687255,7.497257899902258,16.60832271562102,29.96526934575451,18.91819820148458,6.311658499888634,4.185552290047881,3.4845647696937756
2,1,5.9830340680261775,8.266110489570679,17.84754632650931,32.0865771650801,20.89145286167299,6.625740436464545,4.20591297271407,3.5423270061886822
2,1,5.711666209506161,7.432858681355924,15.322913622871582,25.779445830950266,19.024460624315584,6.829454100166816,4.417730322776251,3.4403556683320398
2,1,6.119525181982853,7.89418772829153,15.47427091695963,24.50715646697182,19.14174063605165,6.802276223881511,4.576109768412375,3.8141318657544687
2,1,4.85754940877204,8.28070374418984,17.47925883952405,25.636389451128743,21.94254280872559,7.11273197686145,4.34268974016086,3.3679673796583223
2,1,4.81768756758183,9.335230162296927,18.101449025895615,28.45555719439852,23.16001434447008,7.315495560567152,4.435618428551276,3.1961307184096386
2,1,5.146944648142838,9.555199257324787,18.33084874450257,28.027739416819486,24.308100861011017,7.721580101516247,4.350834179528769,3.4898580967661172
2,1,4.912458090714316,9.21116292548204,19.670048578068894,29.676594826550065,22.962363306123287,8.543196040246777,4.9032054616533,3.522001331223784
2,1,5.368280047675304,9.448984788765708,20.448125923141074,30.85753652270375,24.709720749643893,8.201098748406412,4.592314997971159,3.3944395270317207
2,1,4.601834065713762,8.254245906164325,16.495383358832424,24.880356666981182,21.65067508337658,7.379323333951801,4.015398238862563,3.0833864538983056
2,1,4.979162513666797,8.310470059703592,15.977337268825035,24.524659353202654,24.126393956886517,7.326079805117414,4.509304415242778,3.0203203048872473
2,1,5.341066860565177,8.13087717684768,15.888262434536403,25.81936212893448,20.4579006584079,7.317253321134634,4.631032037494371,3.184120207741047
2,1,5.140468549933057,8.394735310874992,17.37626330294946,29.669329742671813,21.3378794102285,7.968991969884747,4.565978283256869,3.2586428385868507
2,1,5.377824079333983,8.904162170221523,17.196501635125543,30.743884227890824,22.499020849442672,7.753049708955608,4.193982315837028,3.1798938109494954
2,1,5.388668392377376,7.642184953555822,13.702082054844627,27.81783645755653,20.539349261854795,6.7529582668015085,4.1269803447830355,3.034288376017697
2,1,5.755558904721351,7.745091161961262,13.732312876839591,28.987119009447014,18.860390572714238,5.9794878638826745,3.656241849800944,3.220497756235996
2,1,5.180077210950095,7.558819464952878,14.27677608568408,28.637689293778173,18.664017997674424,5.66004581238521,3.484651416843338,3.1240573329250387
2,1,5.307272844143847,7.429928019191697,14.503517249369995,27.81677269912465,19.13524814916056,5.430641621759238,3.4074028730768355,3.053072305583985
2,1,5.364991916801819,7.814152788769659,15.745857719570429,27.36964457794975,19.718265733658193,6.02930972002964,3.8446210120988247,3.174205979544929
2,1,5.000144463179912,7.311032679516076,15.962821043852289,25.990721229682936,19.49034424823984,5.931027865406903,3.5491664396793827,2.932646586052315
2,1,4.518797421201008,7.9917377652826325,17.609714935050036,27.23753063238032,19.81815647374232,6.34869725057186,3.297028931740627,2.709213540648043
2,1,4.470224702041414,6.88903453941575,14.403664476288823,24.597663330192958,20.106250132099223,6.184342562780005,3.0477849496646567,2.782220565834253
2,1,4.991154229857911,7.307588480845508,16.293808102277445,26.367936759630904,22.273619955405156,6.371409119971971,3.3843844753157817,3.0051530291211357
2,1,4.7580326224249845,6.413193040102118,14.143036003635238,23.2397318270067,20.24624203063261,5.297554738074208,2.9673974811480175,2.921623483245564
2,1,5.316052530989134,7.105627284641557,15.914322278691497,24.634216672475958,17.499920022013633,5.927232123744565,3.6217657366445346,3.3723894767180314
2,1,5.637116574988473,7.515853489349343,17.163838716649057,26.79076733285661,18.457768746854917,6.3363589250387236,3.7323097649738917,3.6574737336070244
2,1,6.5146587661696636,7.4211395723252185,16.721536251607827,27.4040224208037,20.117652704644936,6.949320495061321,3.75095174463889,3.927673869423709
2,1,5.866387078445769,7.214219921510694,17.17775433282873,28.679102114620093,19.102006412308146,5.831725500504772,3.20118280832598,3.713509374887252
2,1,4.977710531426603,7.181618581842919,16.987199682162395,28.09649164447764,18.957411494597853,5.741501316468495,2.9753806561036726,3.094112547983539
2,1,4.303540282860803,7.037735606809427,15.997829443195032,22.83822621192745,18.67259536322927,5.556575165309435,2.7305973713587828,2.8541704544651436
2,1,4.03707727487471,7.122892048797061,14.155951917017289,24.920830021344717,20.462057885915424,5.697018436941222,2.975728134377063,2.904363045756263
2,1,4.28479575915524,7.334965237305032,14.146240046926332,27.740103333642672,22.090096445294613,6.104245998452676,3.0077182142633623,2.879570539854827
2,1,4.487529756552417,7.720838907775967,15.78031457093835,28.808776472217147,20.928015698521662,5.812560822729751,3.3280560023802437,3.0269034471243548
2,1,4.549380145379832,7.761674694530164,16.044446283418356,31.0085979381163,23.13919746603179,6.050372821898603,3.587585692210962,2.9367483375102053
2,1,4.562474812033274,7.276879146775503,14.753796619965385,28.150547517236866,20.811608084144165,5.446192887218731,3.3504303517058385,2.9449117171834502
2,1,5.234646935016096,7.213235900513633,13.959553665085895,23.44056923898148,18.60582114495025,5.0645429929597725,3.418370532655131,3.233316473216857
2,1,4.2268141430381885,5.836236513229017,12.33288819704616,22.442789982946724,16.806867247909803,4.278317272432214,2.71198123669115,2.5274905936739387
2,1,4.060914205190901,6.230376091806006,13.719477196487134,24.020508959570325,17.99595281280617,4.825549129693407,2.925457383566602,2.6128114936744096
2,1,4.145498741855351,5.884382309863455,13.441502908141848,26.612434584064268,19.653114867337433,5.238567119852203,2.907272376611773,2.5971692024641184
2,1,4.034219007624628,6.359127140780912,14.66292910669724,26.483637701554827,20.613234791752046,5.116538319051944,2.7944204375315707,2.632379453618208
2,1,4.215570199339614,6.572635950362732,14.775293827583365,25.36647111654709,19.04034089212,5.048174739532303,3.117701486111524,2.8521485554966537
2,1,4.272211719160198,6.023167750915762,14.38255970254826,27.494318996627776,19.15396272387231,4.247099634550275,3.1588837126694957,2.56368824738066
2,1,4.245454945730836,6.242016368428636,14.709575778100092,24.38825739887846,19.395766359678216,4.518571555565124,3.301926535851775,2.7541303596783395
2,1,4.300681676721934,6.1617117397173145,14.518983443293884,26.53576841302289,19.750950208204483,4.7196221015305255,3.308850308676626,2.8193153286987656
2,1,4.541706054725213,5.969329775215802,13.936300430413558,23.389845307575012,19.01181007376248,5.018910513428377,3.4570482961483853,2.892757348253278
2,1,4.15570928997334,5.041977271593247,12.687482053316304,23.701650912883988,19.20823667795041,4.443820409199069,3.1361863293552474,2.7012703680799555
2,1,4.566669538364988,5.008179169063072,12.711014071059145,22.64096034149088,20.148311440649262,4.3521447796432655,3.0188456016082683,2.78284650075229
2,1,4.330649542089704,5.379482246554674,13.440179942265809,23.58826565680396,21.160115356758755,4.77397782070998,2.9695167711358827,2.7083784045058277
2,1,5.083510906908183,6.15509386489593,15.206900193001877,26.855956959740748,19.681457739227824,4.628501803254204,3.1924609778422,3.2994829016378553
2,1,4.996299952939322,6.713507892968553,15.8322333040345,26.8501540157149,20.410321175283244,5.20487238953397,3.4189188549194136,3.3151673756042888
2,1,5.19079182034269,6.1414432614040875,15.745945265816728,26.275867924333507,20.00247618973604,5.193218293272953,3.329630427431349,3.310200162389849
2,1,5.034615344826468,5.0966699035841865,14.422116444174668,27.243276393732124,20.78313445418986,5.095532774502295,3.1990990662274417,3.2022832598403137
2,1,4.78434810075342,5.6757008705078205,15.911493348566163,29.2316539788711,21.16707628857989,4.989136178064111,3.2324630688413656,3.112784176301486
2,1,4.702793358458552,5.719811933722168,16.088107293285407,31.109763654868253,20.92652846893649,5.206732966012394,3.522490314847661,3.336779958917144
2,1,4.533763515465305,5.952972071502606,18.050111026565133,32.898721423423815,23.552964671033102,5.3095401329233685,3.4286241715850556,2.9806639875884464
2,1,3.6463775003635885,6.111424935488132,16.449326873416876,26.09989402151087,20.89576156622972,5.187576832639748,3.272743920667518,2.626276825513037
2,1,3.995597372819326,5.361199422379807,15.242918195486235,25.79339345313108,19.602116297952378,4.749011365339067,3.3743521003333385,2.570345841155686
2,1,4.2870064083142365,4.9545734431745245,13.480028099628349,22.974840240218068,19.931644262316652,4.770769005743001,3.4087824533988504,2.8199455879070103
2,1,4.604901177405551,5.339566688293639,15.285962460442997,24.846768109800806,21.468091103463745,5.026745819433502,3.4811616172121314,3.0565935936278565
2,1,5.176297821830628,5.478791100868806,16.074984299604022,26.626405727655403,20.90100654465221,5.778379110319188,3.6024312551766178,3.4725295973341956
2,1,5.0748235729612805,5.0667761144234,15.547699504896286,23.859965406295572,21.22527183210409,5.96726664251007,3.723739504886699,3.4564989637148598
2,1,4.985544189155464,5.623257208991005,16.503247236805127,26.404172142828973,24.950784608882497,6.810509386756569,4.310464278361351,3.6931401012361893
2,1,4.937190589858326,5.640069993923017,15.635702064404803,25.03631667212637,25.4108751787427,6.759634565197389,4.489338684125684,3.8581808189391373
2,1,5.087445083801241,5.900483865981672,15.707359416888693,24.498590130762526,26.265383042865995,6.9509970622229025,4.337556634259557,4.053491571312492
2,1,4.894225582775014,6.314518485921127,16.408388477279537,24.119368495212914,25.8503052585836,6.84225982657222,4.439048820121725,3.878780688442624
2,1,3.8388805025261097,6.201458574272181,16.99321511034194,22.92684320113901,21.81858201248662,5.93119967439946,3.4824391544864453,2.9105998665147594
2,1,4.115051060208727,5.798421277964591,14.386657378681077,24.088325455406025,22.568667431916708,6.39387540018362,3.612167081061086,3.1667179262866942
2,1,4.156984516232161,6.068564452647126,14.191433354129902,24.902189105229017,24.48385526998777,6.387665668742565,3.7131235109430274,3.130711192148182
2,1,4.289011358437761,5.7674430907981575,13.740693393164179,23.720252154457988,24.805013296726923,6.478130371678977,3.6070879650653422,3.0760950312761217
2,1,4.444328656844314,5.823570083252248,14.445079094824969,23.819324824072933,27.32284714448742,7.021360023880484,3.192765586812512,3.017301186790359
2,1,4.820036684073534,6.269927097466786,14.846265268756982,24.19025895986618,22.343001648375743,6.524647054418297,3.2425408400117064,3.1510103321429823
2,1,4.9931729086221885,5.991953496904333,12.648874382879692,22.36324576963076,25.02630245528601,5.693058409350257,3.3102678458668646,3.478092251112747
2,1,5.227035472349826,6.202904661019288,13.78036789098288,24.817527352924778,23.156565864129846,6.002796342621622,3.5980622965622486,3.4695772537783047
2,1,5.01560905122228,6.443178437805193,14.629884072652551,25.973579900477365,23.263773669389696,5.958629914384437,3.5102249145811157,3.150916348846209
2,1,5.111544631230099,6.546027186368085,13.744362930188874,22.638410414806813,21.564062327048973,5.983775216750792,3.3836494988550188,3.105141677613744
2,1,5.378617758278967,5.713963092601312,13.610329492332589,24.148401938765673,21.245081933318055,5.997882089313461,3.606965245784595,3.33303429730578
2,1,5.033777136332194,5.676833246176855,13.047769587860602,24.016006355287495,21.69933223425119,5.52440685609908,3.5541417435346934,3.205106884907849
2,1,4.957537095547877,6.30808384323931,13.878185645543573,26.662657479294538,24.27005168005405,5.934985707096177,3.9515599930816565,3.466897862384161
2,1,4.393183533386809,5.366518618443077,12.362892506795868,21.309009101968403,24.075819325522318,5.789864240788628,3.859809337925907,3.3704358672966053
2,1,4.4829259090767,5.287706099952708,12.983862639193774,20.951684075579,23.426356918707157,5.884061347620285,3.8894367898591913,3.3871500444063174
2,1,4.659087004990135,5.361727441182072,12.795334575915525,19.378574644534638,18.643607112378753,5.3154158420226,4.034465547761382,3.5318767485175653
2,1,4.408431288836838,5.512875622088009,13.466546882867272,19.8829318712419,18.261275092677792,5.277978920439636,4.019784609133362,3.2982289953379325
2,1,4.865028994078131,5.520961725929163,13.941576237021344,19.998268893313952,17.719986506695413,5.178126200725771,3.835617161811801,3.6805570473446285
2,1,4.0327327431706825,5.542133350907878,12.88762282240105,19.901812560540648,19.56992484631731,5.104413672681471,3.4436362153446254,2.8299212806549914
2,1,4.095054052968894,5.8101549073665515,12.443887921877252,21.062681308533275,21.17511305001976,4.789059057851873,3.262418205186354,2.6879512040244324
2,1,4.197962786212367,5.875747848960187,12.950374643558717,22.210713326906607,19.569935832375766,4.940103238832861,3.4013206868473964,2.825317166263336
2,1,4.587685374872078,5.92236003833071,12.620046729343903,22.19692927991783,18.82146976437263,5.129574121330817,3.634287168134631,3.0317335987375618
2,1,4.284115723689621,6.11066309011296,13.578173009820246,22.878934814420575,19.640708023943557,5.395768923312804,3.4080035257065258,2.7264470277633093
2,1,4.360389483426892,6.30726106002319,13.743444220513261,23.303046055427878,20.32763753778993,5.633126967132854,3.495656411984958,2.855580357857442
2,1,4.58486854661652,6.106990591564851,13.293363686273672,24.758405039441126,22.029516242640316,6.088363042297544,3.7969246992531622,3.1672397176210585
2,1,4.641703414556337,6.522927924085378,14.385157726161859,23.567514824633975,21.978888720524107,6.3383620901490305,3.804212689705613,3.0661718814856687
2,1,4.998564620016857,6.871569149120989,14.368766836750037,22.907355132815063,23.458930303951067,6.811226509509298,4.051241496988445,3.193822762602734
2,1,5.0178207699703306,7.261494532157359,14.775456336478937,24.49239752241509,19.572297315789164,6.440643449094255,4.023515409906261,3.1495826552454806
2,1,5.667387448520434,7.781898956826185,15.281639629864708,25.49372713487528,20.93623339861566,7.302965413540176,4.481362213809135,3.5275304478843412
2,1,5.271958569497248,7.526858012794285,15.10321081748994,26.482672135350082,21.513320682154824,6.793894149007616,4.140576183095127,3.3154631856128884
2,1,5.425503165201723,8.169878874523489,15.65099692419085,25.365686517519862,22.838642711564177,6.990126496375937,4.60150149176058,3.521161911046899
2,1,4.878925631691267,7.458505066886709,15.878904639965505,26.335233569377472,24.130082522184626,7.1907335652900715,4.357206029500401,3.1067880183510352
2,1,4.9833272674055396,7.259782752044186,16.13127057735496,26.913765080984017,23.188017131188747,6.980781303287469,4.583263100590452,3.241420258484929
2,2,7.949718291319636,11.84439876963761,26.942021125231534,37.002207128264686,25.545649148495077,7.514255740302778,5.419159400517629,5.5545693823271405
2,2,5.742298533840201,10.210890179795227,23.01144009826751,33.96208360997821,23.45664898667914,7.743366767261708,4.883347352325346,4.172847331307014
2,2,5.30409810327951,9.55771382941777,22.726502657370208,33.97196842859086,27.49630737682946,7.883833713310558,4.519332204929849,3.857722805770767
2,2,6.223091785043014,10.225540880763454,24.943181734417575,41.80427122591592,26.340557389911044,9.054097726148454,5.317780285646577,4.39750470996957
2,2,5.671378348894532,9.322678570719786,23.96348412002768,40.14464222159866,24.214006511429133,8.191034141802806,4.8902285116482895,4.289182565482221
2,2,5.944668594154649,9.545219513180777,22.871099966085897,37.071279285104765,24.248311754650718,7.797860723793007,4.993361574237032,4.863763194882502
2,2,7.034351302175174,11.74629393758738,26.941826654049347,38.52313803059832,24.583879553250974,8.98550446932596,5.574320206207455,5.18730092592579
2,2,7.824157670298327,10.26617237835622,21.715395020251837,36.06861946019489,23.474969428634736,8.40907508734859,6.033188198666715,5.9500192133395196
2,2,7.204226712413325,11.367520199501714,21.416160621219205,35.59883669097892,23.652907493330304,8.905194915892102,5.505560950127246,5.191149658817854
2,2,4.2869475541128335,9.012209532192701,15.131397594501857,24.18421201405939,18.40863532078988,7.79496694036341,4.215326807620851,3.6669641399020265
2,2,4.473931153950215,8.724942022448005,13.387398905260472,21.180874386483396,16.388237685619988,6.728194954208053,4.061271455682977,3.2343116389130087
2,2,4.171751872749518,6.9656039668502165,11.484491025831625,18.51328592725738,15.41075239676299,5.5957945472116775,3.7742268383125452,3.3886050633291425
2,2,4.238118632988539,7.847538479420514,12.10930488572882,19.41403768014265,15.676686979204492,6.021182764128212,3.9995328981358504,3.635793134246498
2,2,4.523534294907005,8.043203778074624,14.043440734464554,21.428139168618696,15.87114021113116,6.839560845770462,3.882401074158236,3.6587516252573304
2,2,5.106645248410712,8.68030561531541,14.14903801740011,24.16359655193867,18.694817162284565,7.126484069626758,4.467673240069375,3.980916619465665
2,2,4.775933673807738,8.38492357975463,14.358975993209468,22.76636751247426,17.312919537771045,7.245197216500164,4.607873252700324,3.895582351007643
2,2,5.206245995700198,9.632961661126707,16.09547151239353,26.664868733022175,16.848419014280715,6.891407303082024,4.790902684050074,3.979994039756196
2,2,4.884006688920782,8.071885633802866,13.711683944928772,26.740650776024253,17.224606444713842,6.291153965509526,4.166316352054425,3.766381922469365
2,2,5.8476605684202,9.198991573709593,17.128056574963956,26.93244024496929,18.637823665580164,6.391395703074048,4.466439604294575,4.3933487006397405
2,2,6.050870735042798,9.936869473814316,17.596489807789027,27.397212090947665,19.294491967626477,5.940374128770896,4.1847541062235285,4.373411957215378
2,2,6.485663136102338,10.296111209066565,19.342775189320513,29.103008321406573,21.367090079429367,6.6194385840867405,4.077268213279415,3.978109501871796
2,2,7.042355864254069,10.692003123303031,19.975590948281052,31.886556957395687,19.877809190755002,6.3923455766026285,4.188375146777615,4.367201616927387
2,2,6.273289357043579,10.246319019068663,18.070176719995043,26.442790688519718,16.402328040647895,6.817812015661632,3.9068737448532325,4.004411293840879
2,2,6.622164363159674,8.807301066623124,15.920564241809538,24.374800764049176,16.130079735444877,6.100655885005965,4.4618972336576626,3.953381917966772
2,2,7.190749808819773,9.736979560541833,17.892016419176393,30.886894183881388,19.171270054601074,7.808664580373334,5.200325074782698,4.125056560896206
2,2,5.7161077470679515,8.829845135268599,15.77307449627475,26.918207124259258,19.92034629032575,7.613070187541429,4.560895126267614,3.748819662537403
2,2,6.43834775870565,8.65688366434783,18.025114953940523,23.55523105218753,16.961339545191336,7.263404436611408,4.827287422735431,4.231848015730747
2,2,6.902004589908069,10.315742297346759,19.5785938217077,27.125834010819265,19.219996173717785,7.369888243408972,4.910457552045168,4.5804569009604545
2,2,6.883858891402782,9.870094644158558,19.41834507734451,28.85157596367253,18.457435455269685,7.938484536538271,5.440498133694978,4.401226641179271
2,2,5.333571661414345,7.929095744152537,17.00999954034891,25.709481050378074,18.729390420005807,5.591565218622707,3.963961334834106,3.4768517827064613
2,2,6.729562831095724,9.279545879310794,17.750928718166698,24.33759290332618,17.24093132946337,5.598987921867352,4.717673834653986,4.282995749358584
2,2,6.1671636277756985,9.108802142591935,19.085474728669205,28.98144807638073,20.233166773334403,6.379550066736152,5.0006472560766815,4.445061332455914
2,2,6.852725909747588,10.004021507553949,20.46148468500382,33.1072431834937,17.47944874637609,6.134146161600245,4.843106075068988,4.250651652598754
2,2,6.776476027900434,10.556624579577688,24.45333847750797,37.753652087309,18.99884270903318,6.082674280515332,3.9935874810659375,3.8343449905798246
2,2,6.834725694996583,8.704893460012297,19.71934572849959,29.548317040936602,16.80317954433858,6.181674527293496,4.36897863807071,4.411632870416027
2,2,6.01697783321559,8.420980035029975,18.61885116303135,30.092917603833943,18.592812662601073,6.727500334533672,4.4527499741932655,3.735569495412622
2,2,5.7208847844915365,8.69056676297666,19.88406289930291,31.541437470866807,19.879610119671423,6.3433965807791,4.034890565574067,3.5612742181336126
2,2,6.035930224393569,8.1288815574587,17.42122474666226,31.792189990643617,18.59849727997483,6.4781836353132185,4.312347050834685,3.8185759278632863
2,2,6.500573139715919,6.8340030352145265,14.827343897526024,27.783596924674328,18.803533033536976,7.19763694442552,4.4494190243229435,4.638548312274183
2,2,5.5257496062623375,7.249334506607563,16.58851527767482,30.149133380361423,21.767372877538236,7.259469841748605,4.470768379227803,3.98213002450778
2,2,5.451408132135852,8.454558356116438,19.63076946910847,34.658125890241806,22.182078653719277,7.837902965019061,4.633603472539845,3.76572288479062
2,2,5.07228563699331,8.49041647929109,19.226204285177204,36.521337688692036,22.184201768499065,7.036448628086894,3.8451713193237453,3.4489935540382626
2,2,5.540842692419931,7.8255589319048795,17.591890178392013,33.260752406034705,21.51265917320977,5.909903386531557,3.6571980951038254,3.6451903712482423
2,2,6.258653620091792,8.894541426225855,17.705155025403204,29.879376045847266,21.84055555807571,6.702678452383205,4.091933312107643,4.128036675846402
2,2,4.707174199403058,7.675219475784268,14.494726733113303,27.778184499618895,24.63099867662434,5.617259850067727,3.1777912404145074,3.0329208136914065
2,2,5.277937536480504,7.423051552362786,14.572301374460652,27.414907682630304,23.311330532968014,6.383668602833971,3.1762375511662433,3.319837720288531
2,2,5.351367229463524,7.768932228337376,15.14223335778169,29.064459829653682,25.421969251860723,6.973807791217995,3.4288708994422508,3.3781582360054414
2,2,4.846103328659496,7.237771494766027,14.897804031674703,32.876844674980084,30.23617175465795,6.861008026516593,3.4085568883947897,2.9326426571803506
2,2,4.07197583546736,6.748619551778546,14.28154961870578,25.413062178166804,20.78537605957552,5.256852369502697,3.246194766438485,3.066900152911135
2,2,4.304132373266663,7.626022180328488,15.641609974663606,29.53793420029218,22.85940914773597,6.076009510872864,3.3637190333141023,3.349773970391456
2,2,4.507141311583948,7.556774996227122,16.267670041007182,27.754610028061357,20.452573422036178,5.087912210514028,3.215249964261336,3.5003070238254654
2,2,5.139056803736774,8.396363276105072,18.273012179319235,32.66178255291813,21.35561394428624,5.828072568713706,3.642472422117593,3.7925029834795354
2,2,5.6190148695700115,9.730735594741873,19.701401288953406,29.636204388683964,21.801645251310607,4.990490054546848,3.295457000229891,3.530923648625063
2,2,5.503273697034403,8.244920104912346,17.02568682383114,29.772368324524024,22.750285631636824,5.116692789778579,3.5027192743900586,3.9156730265448387
2,2,5.529344739582856,8.924734114875877,19.0113296354842,33.16346564495969,21.33050182123229,5.465033084698251,3.5461971490970425,3.9800555378010216
2,2,6.003973934772031,8.179092633754344,17.54564554264307,32.62127511315526,22.247163333710326,4.998427380799512,3.9617385781530383,4.449829315398976
2,2,6.518577776483268,8.221385499248337,16.723149822526345,29.048474927625385,20.25391290021519,5.273258590752547,4.244222758535046,4.417297843370342
2,2,6.478995693622779,9.35244639055803,17.603532969751406,21.862442033890282,19.387376095613984,6.12766565542998,4.480702584991261,4.637231886763993
2,2,5.1073177133736305,8.064911073696535,17.753375448745125,24.578620958221947,21.15428781646784,6.300158431009012,3.838342588136478,3.8528035333325756
2,2,5.088496661261502,7.5146908136708435,15.982004457217421,22.641837458600335,20.18616397001443,6.2815517741283315,3.6849715621636037,3.83811091895077
2,2,5.628025405884924,9.254107500003052,16.744497755605362,16.825384717538867,16.834296471205384,6.523555984442026,3.9805634338681286,3.912593921816668
2,2,6.067482982258238,8.45804683776931,15.075044932142353,17.462791644543394,16.582322189685744,6.755081122246379,4.467716529537371,4.482994674165048
2,2,5.80019304022942,7.691706054805669,13.607031093261162,18.194914446388808,16.996283056752322,6.469350256556015,4.411976025016909,4.429296471700877
2,2,5.84747715994387,7.938315790774437,13.643724480497337,19.10859618335053,16.956101467443293,6.745220658495984,4.530173169253337,4.63457237245475
2,2,5.129178418517941,8.420726724463226,15.516916944850252,20.50221541998234,19.192206957304656,7.4256284582046925,4.172050984644619,3.87590804685375
2,2,4.978837393739817,9.538539615622476,16.52348854104458,20.322672456759673,21.623296476230664,7.781847706256781,4.453602830291431,3.6164200601417873
2,2,4.97722428444136,8.703269301131979,16.165982119328923,22.545991607938035,16.122165902576924,6.6034027933876995,4.424886137916551,3.7853056637326916
2,2,4.493539531718226,7.162367886584236,13.069874336240122,17.63664900447281,16.028804076668095,6.268010868427182,4.337544890564704,3.144832331335
2,2,4.205359733780998,6.40271018062767,13.67262221323002,19.000967475090874,18.342927674587504,6.5157705027237425,4.03978345364856,3.2884534964190757
2,2,5.068575402731459,7.324768485549419,14.032154284785188,20.89399372051068,19.747157965264854,8.465867689225457,5.021474941328032,3.9758902108701943
2,2,5.208194805369104,6.5869502990420425,12.55192365899614,19.305586335075446,17.927316693739964,7.81427499927819,4.529882799126669,3.997867645346645
2,2,5.7889419627963035,7.629283901751439,15.193244482383086,21.25030554139477,15.933935582379574,7.253562710479866,4.311896338543486,4.0351187451803865
2,2,4.314517863074143,7.010229568671025,15.048423815910182,22.50123274521104,15.856901867964318,6.5235236240155245,3.3990325552931266,3.277971597956594
2,2,4.3040794253508485,8.747169579447325,17.720976966581745,23.34725454768122,20.12186777247373,8.070884790424445,3.5647478834937587,3.1624171293128587
2,2,4.334161800338349,8.62729240858007,18.567514059834505,24.905921331805324,21.248626054920546,8.515040486391328,3.991728804631827,3.2376958216033427
2,2,5.026290846082964,9.228005962744959,18.92973451381378,27.394967703733073,22.427879704864726,7.467011557985564,3.886109618634054,3.6490663618875296
2,2,5.37708546749835,8.296312106538885,16.983506952814658,26.872156992970872,22.80103244145878,6.836716863531982,4.445099583982174,3.682093767976111
2,2,5.6562221809836295,9.432385132555487,18.552391665954666,23.805798436751182,23.312824520148258,7.247005382249258,4.687309479768997,3.483715346849081
2,2,6.4602945947786745,8.808385093866118,19.314058402013185,24.850394904655303,23.0949416747822,7.234243191211851,4.318395206604617,3.742273029027525
2,2,5.210170615609479,8.447560531249797,18.949532535565236,25.249450663939978,25.240171525706213,7.425822428720679,3.9365360173797344,3.415500666258211
3,0,7.305970511378162,8.856371219759204,18.2056531114348,34.737974759497,23.581587858901095,9.831575100833746,6.402816392477727,5.015637475255498
3,0,7.894172142208587,8.72571011887768,20.77442313675397,28.22280470880768,21.40147692715074,8.361616412428422,6.230836930639896,5.090411398715331
3,0,8.34767736729004,9.110604384835808,21.420247000237865,28.81199153511666,22.553029793657558,8.678988332921659,6.332520458288092,5.300641029926974
3,0,6.879568454483567,9.027038124919773,19.988045873470178,29.0579677486646,23.490984755954322,8.782971134946223,6.181534451726647,4.483404495518816
3,0,7.479276971140936,7.920974955069814,17.268505760427168,31.76825778780614,27.25591033559785,9.70600387623927,6.412021309684533,5.143182645163599
3,0,8.2566343775944,9.043267996633437,18.984329936482748,29.5852731879206,30.61161078876246,10.593968694482669,6.48843263357226,5.734283547299239
3,0,7.7248691978128186,9.674586266323201,17.01008958089191,34.014195118065786,28.68865119187443,9.613425898848734,7.028552094077567,6.044602503139699
3,0,7.005723941465553,10.301480965462433,18.284889873874395,30.66781919009056,24.878144912314873,10.604070696951652,6.788245274572854,5.2719357424005855
3,0,6.956450534217116,10.49584842940969,17.424273263900563,25.07712275533567,25.12095343646312,9.600929421484649,6.574350001822236,5.29715260406495
3,0,8.178034819846133,10.333255800921295,16.510127166917535,26.01704264758111,24.098273125138615,9.91161203997323,7.14426094364208,6.0827205553421635
3,0,7.8443254357509415,10.568211641110057,16.945152045178457,28.27075234412724,22.006988352284743,9.641374716411562,7.1501227268643825,6.1098229561948925
3,0,7.388312943862625,10.599762694323635,17.148035884702548,30.706351565914932,24.124556860514083,10.620470033751536,7.110842809208486,5.633423741486341
3,0,7.437992042930594,9.602212919260227,16.494665620432254,28.933246642740553,23.18192194728641,10.361526570129685,6.894341996105153,5.7991878752863455
3,0,7.670078066132606,10.670243500950646,17.288713781733463,28.951109603461617,19.230835342777972,11.484681293620039,7.643231802641736,6.146230249334926
3,0,8.092022008779946,11.994615949120744,19.450456491208428,32.08493295526052,20.349010307683315,10.603106312787775,7.240786915678633,6.139502500508904
3,0,7.866947378841579,12.266982703207436,18.814898484771774,31.048428825904733,21.784976103890507,9.26572505415491,6.621876086898914,5.9321698360288835
3,0,7.488393490912416,10.446154504540013,18.47617102497876,29.12361742441906,19.32783955409148,8.549695740960937,4.756667512211866,4.760617118117276
3,0,8.294609741039631,10.44268557958163,19.371251407570988,28.197767115145737,19.72645911955745,8.81818738536058,5.361035815745244,5.6117599262452575
3,0,8.39138166074737,11.267848707698986,19.40049872639579,30.505515583754043,20.791156955375634,8.682771096346748,6.177007477303102,5.632761678146229
3,0,8.295196921133423,11.959565689629754,18.101687102797733,33.67472344555985,22.955773406059233,8.828431931071444,5.876712438968718,5.454766993713614
3,0,8.588903209428231,10.912655806387036,20.1456634175116,35.697806935989256,22.122026649690767,8.616320749538552,6.108378947451874,5.716485937397723
3,0,8.335140883738369,11.045749709104246,20.89610731201918,34.95105179451357,21.608191378819036,8.710082341655884,5.500373951035139,5.44055415204063
3,0,8.5319980923318,11.635143960995189,23.745924834056012,42.62445240667116,25.427213679409938,9.881896992194484,6.822946779194434,5.856409738316337
3,0,8.172430887096219,10.21264769470017,22.728418653581077,38.38976549427059,23.509248478675307,9.675673480598263,6.623911515036361,5.2229320917434325
3,0,9.955790449057616,10.869781968819085,24.11778656691004,39.43938619705419,26.331733930915753,12.040717618798572,8.5367403088761,6.439018169976753
3,0,9.128810946281526,8.850246691872933,21.873409216217357,37.74075734228727,23.180225387541427,9.289221965186442,7.179784876357199,5.528559615533976
3,0,8.739278473374235,9.654199849085295,24.61664382757014,41.66385194862238,24.520000289005242,9.933164901299405,7.477781368527696,6.133745539563137
3,0,8.09036778873309,10.13603091751895,23.658799510227425,43.24148519871038,25.141237107978476,9.882805585127072,7.1643052406014185,5.523222984512023
3,0,8.823414459515703,9.664248991421545,20.44289161790198,36.66421367856875,22.34428270792046,9.137651695674183,7.226458220398651,6.44323880792881
3,0,8.478256586556281,11.11656899455316,19.65597004663927,36.35676057875833,18.458361493110424,8.41686915009935,6.640148122683022,6.029576460424601
3,0,8.495825339302826,10.600408676167593,18.339430237252415,36.485198802042255,19.16508070870864,9.137874340441769,6.578184061949677,5.625998887617206
3,0,8.318236934073777,9.184099793676536,15.189972864092482,38.40141082686408,19.088916257836388,9.350812769572965,6.836948955946033,5.595211738382047
3,0,7.830043013665866,10.250851259780704,17.766653584154643,40.7210161565165,20.128276530693615,10.205550782081326,7.324439344328577,5.653453955538935
3,0,8.058045604611916,8.924712322324341,15.73594241991781,34.14522768139865,22.972508624767556,9.024849669333918,5.925160660195054,5.761736286197134
