timestamp,C1,C2,C3,C4,C5,C6,C7,C8,
109477466020,-22,-25,-44,-80,-97,-29,-65,-15,
109477466020,22,15,100,81,98,-19,31,-2,
109477473483,53,41,-60,11,91,33,-24,24,
109477473483,-14,31,113,17,-29,11,6,3,
109477483290,25,20,-63,-38,-31,15,30,11,
109477483290,-3,-39,-25,22,-34,5,-72,-25,
109477496334,-33,78,67,-60,-114,-43,13,-11,
109477496334,-30,-64,-99,18,87,10,3,-7,
109477504842,58,21,-13,-7,16,-13,-17,9,
109477504842,-107,-16,-78,-95,-45,-25,-2,-40,
109477518382,15,-37,52,75,50,20,-21,13,
109477518382,29,25,69,-44,-45,-11,5,-3,
109477526142,-47,-10,11,76,27,7,-34,5,
109477526142,42,43,23,-9,25,40,62,33,
109477540881,12,-37,-113,-68,-51,-34,-25,7,
109477540881,-11,-5,-34,15,-8,-4,28,-8,
109477548885,7,12,28,31,38,14,39,15,
109477548885,1,20,-4,-15,-20,25,-37,-3,
109477563736,-40,-112,-80,8,-11,5,14,-22,
109477563736,29,-3,71,22,-63,-35,-27,8,
109477571025,46,65,127,38,-77,-3,20,22,
109477571025,-3,-10,-106,-51,73,18,-9,-1,
109477593629,-4,-77,-96,-4,10,-20,8,-19,
109477593629,-63,-9,13,-33,-38,2,-3,-9,
109477608370,25,30,-27,13,12,-2,4,15,
109477608370,-32,-76,-110,-37,24,-8,-34,-24,
109477617857,15,-8,7,-40,7,22,-11,17,
109477617857,55,51,82,95,20,-57,-14,7,
109477631012,-31,8,-18,-35,37,20,19,0,
109477631012,16,45,58,17,60,-26,3,7,
109477640443,-48,-43,-98,-59,0,38,68,-4,
109477640443,6,-75,-71,-45,-26,-10,-40,1,
109477646174,33,22,-51,-65,54,8,3,11,
109477646174,-18,-7,-4,36,-17,-5,4,-7,
109477661237,-22,-44,28,3,-51,-21,-16,-25,
109477661237,-4,1,-44,-41,11,34,28,19,
109477676166,5,5,85,46,17,-3,10,2,
109477676166,0,25,-46,28,13,1,12,-24,
109477691448,-6,-20,-61,-73,0,-43,-48,-22,
109477691448,44,31,56,96,5,44,-21,-39,
109477700659,-39,-31,-83,6,81,-23,-50,-19,
109477700659,31,-29,62,-95,-89,-2,14,30,
109477713464,24,127,66,58,-1,23,26,-2,
109477713464,23,-39,-127,-60,-78,-16,-36,16,
109477729791,-54,-7,-23,-69,-82,21,-32,-27,
109477729791,-2,-36,-22,98,41,-13,15,13,
109477743490,29,40,51,-27,-85,-9,22,-18,
109477743490,-15,-40,-121,-54,73,-5,-24,37,
109477752267,-7,-55,18,-5,-52,-22,55,-25,
109477752267,-24,-16,-79,82,-72,-12,-10,-38,
109477765942,-31,-19,-48,-24,-13,-13,-5,-18,
109477765942,-29,-62,-83,-64,-58,-19,12,-16,
109477780993,-3,8,76,21,-57,-7,-33,-15,
109477780993,7,4,-77,1,-128,-23,-23,-16,
109477795933,0,94,81,60,20,30,5,-3,
109477795933,46,15,-38,-33,-24,-24,57,19,
109477803503,-49,-79,-82,-52,-22,-18,-12,4,
109477803503,-1,-4,40,3,9,6,7,-4,
109477818542,-46,-15,-53,12,9,-8,-17,-13,
109477818542,-53,44,21,-18,19,13,-10,4,
109477826197,1,-50,109,41,63,16,6,0,
109477826197,-6,-29,39,95,44,-16,18,12,
109477840941,-7,57,8,6,-39,5,-13,-10,
109477840941,-1,-11,-67,-59,-93,-14,-15,-17,
109477848727,4,-42,-38,-40,84,28,9,2,
109477848727,42,24,30,-15,-38,2,7,27,
109477863515,-11,-95,-72,34,-34,-19,37,10,
109477863515,-19,25,127,34,0,4,-9,10,
109477878550,13,40,-5,-75,-41,-23,-42,-18,
109477878550,4,-117,-42,-18,1,21,-15,-17,
109477893425,4,-14,-103,-41,-57,-4,-15,8,
109477893425,-3,-9,-25,40,80,17,52,7,
109477908570,27,1,16,37,84,26,-10,5,
109477908570,-65,-75,-128,-80,-41,-34,-41,-14,
109477916083,26,-36,73,104,-128,-38,-16,-24,
109477916083,2,112,92,-124,-10,25,-5,-14,
109477930923,48,43,-7,112,95,18,28,35,
109477930923,10,-6,87,-17,-9,-2,60,14,
109477938448,-35,-58,-42,-50,26,13,4,43,
109477938448,-20,-65,-73,-2,-28,-18,-37,-32,
109477953437,18,-47,-128,-31,-45,-15,26,18,
109477953437,13,77,85,126,46,18,-6,27,
109477968522,25,69,62,-20,37,12,-11,-16,
109477968522,-51,-17,-94,-27,-32,-17,-43,-12,
109477983731,31,1,55,-21,31,41,5,20,
109477983731,7,24,1,70,-60,28,31,5,
109477991180,-5,-12,62,-53,-9,-27,17,1,
109477991180,-14,-14,-128,79,-66,1,-27,-9,
109478006018,-5,60,-35,-24,-50,-5,-45,-2,
109478006018,-37,-58,-83,-56,61,3,-4,-22,
109478020892,-33,-117,-128,-85,-56,-26,-24,-17,
109478020892,80,69,127,61,-13,-50,10,49,
109478028390,-10,70,44,51,-56,24,-7,-32,
109478028390,44,3,-66,-27,53,-7,14,-2,
109478043544,-2,13,79,70,38,51,29,21,
109478043544,-56,-41,-115,12,-46,-25,-74,-36,
109478051090,45,-11,18,-75,55,10,57,-6,
109478051090,-31,-32,43,39,-72,-19,-3,18,
109478065939,29,55,9,-45,40,21,-1,20,
109478065939,20,-46,-23,6,-44,-24,14,-32,
109478073393,-10,-37,64,-20,17,-20,-33,24,
109478073393,-6,47,42,-5,-2,21,-47,-40,
109478088393,-4,94,92,99,46,3,-16,-7,
109478088393,48,56,50,-11,-28,13,23,39,
109478103357,-12,14,-21,76,-40,-7,-18,-7,
109478103357,9,0,-45,-123,78,-4,-7,-28,
109478111128,-54,-80,-122,93,9,-28,5,-29,
109478111128,6,1,52,-16,86,31,-38,1,
109478125929,29,6,-11,28,-49,-15,40,6,
109478125929,-32,8,-70,-52,-28,20,20,3,
109478133448,27,11,49,21,0,-1,-9,11,
109478133448,-22,8,51,-17,-26,-11,-12,-22,
109478148449,34,81,-47,-55,7,16,13,28,
109478148449,1,16,61,55,-59,-29,27,8,
109478163432,-72,-11,15,-101,24,12,-20,-58,
109478163432,66,-30,-7,125,28,7,-14,28,
109478170865,-3,27,-65,-37,20,-6,6,-8,
109478170865,2,-27,38,-26,-1,14,17,7,
109478186139,-17,-40,-107,-50,17,-56,-35,-37,
109478186139,-1,101,127,123,122,36,-6,18,
109478193648,12,-10,44,-9,-3,0,8,-5,
109478193648,-1,-64,-128,-74,70,-4,15,19,
109478208381,12,41,-80,50,66,39,-14,-2,
109478208381,-13,-56,79,17,-103,-32,72,18,
109478223660,26,31,36,-8,1,-7,-30,32,
109478223660,-30,-20,-107,-25,8,-13,-29,-35,
109478230867,-9,-45,-18,-109,-41,-4,30,7,
109478230867,17,-28,-37,81,22,14,-20,-19,
109478253685,-7,23,-20,-3,4,-23,19,6,
109478253685,-5,-15,9,80,27,28,-20,-9,
109478260956,44,17,22,-47,-73,-4,7,16,
109478260956,-15,-23,-114,-28,57,21,-2,-2,
109478275882,-20,-66,3,77,2,13,5,-16,
109478275882,8,89,65,-12,12,29,11,-9,
109478291188,24,19,-97,-24,-52,-20,26,16,
109478291188,-33,-100,-47,-41,-71,-14,34,-4,
109478305797,-23,-3,42,27,49,19,-2,-20,
109478305797,8,-17,23,-35,-46,4,0,22,
109478313403,19,4,127,3,22,-14,-5,45,
109478313403,-18,49,-39,49,-39,9,7,-33,
109478328421,-17,87,92,49,93,48,69,8,
109478328421,19,-9,-50,-33,-36,-11,-18,8,
109478343497,9,-30,-61,-75,-18,5,-13,-35,
109478343497,-20,15,-80,74,-67,-27,-56,-44,
109478351117,-12,-49,-87,-62,0,-21,22,14,
109478351117,11,-23,111,15,-36,-28,-18,6,
109478365814,9,3,-94,-89,20,23,37,13,
109478365814,3,-26,-60,1,12,4,-34,-15,
109478373661,-2,5,48,84,-27,-11,6,-21,
109478373661,-41,85,88,41,52,11,27,10,
109478396122,4,24,-9,-50,-13,4,-28,-17,
109478396122,1,-79,-85,-79,-65,-21,-37,-2,
109478410826,-26,5,124,82,-3,-16,-43,-14,
109478410826,-11,2,-10,-29,96,17,44,2,
109478418678,-12,-11,-21,69,50,10,-27,-28,
109478418678,18,1,13,15,-22,-22,17,12,
109478441087,11,20,43,33,-29,8,-4,44,
109478441087,-36,0,-94,-126,-36,-28,-31,-68,
109478463314,-8,3,-12,35,12,22,13,10,
109478463314,23,5,73,28,12,9,52,38,
109478478311,55,48,-56,-20,-28,-3,30,37,
109478478311,-83,-72,-64,-29,-27,-27,-44,-62,
109478485903,12,-54,-64,-45,2,1,-1,6,
109478485903,-7,9,51,-10,-105,-24,3,20,
109478508377,-9,-60,-43,-72,-16,2,-29,-9,
109478508377,-24,-8,-9,111,16,-22,-36,-9,
109478515862,-22,-16,-102,-54,-42,-20,-17,-5,
109478515862,-2,-12,58,-52,-3,3,-13,-35,
109478538512,-13,-29,-47,-47,-87,-26,9,-6,
109478538512,1,-4,93,70,8,7,28,8,
109478553387,-12,-25,-87,-28,0,5,33,-17,
109478553387,2,23,33,-2,74,33,-25,8,
109478568403,-4,-31,-21,-56,-23,-25,-9,-6,
109478568403,10,-25,-35,24,18,6,-13,14,
109478583484,28,6,80,91,28,-5,-11,7,
109478583484,-29,17,-42,-37,-10,0,15,-11,
109478598403,41,64,6,42,30,29,-15,1,
109478598403,-15,18,62,13,36,-8,23,-9,
109478606123,-5,-32,6,0,34,10,-10,2,
109478606123,-3,4,-92,-11,-80,-24,-10,-7,
109478613391,12,-6,13,35,-18,-6,30,7,
109478613391,19,66,110,-22,-3,9,-7,16,
109478636097,-11,-21,44,-31,6,-9,-1,-4,
109478636097,-9,-15,-83,15,-16,-2,4,-2,
109478658718,-5,-17,-58,-58,-41,-4,-20,-18,
109478658718,-1,-13,-93,-52,18,-37,8,6,
109478681131,-40,-27,36,90,-113,-22,-10,-31,
109478681131,65,38,66,51,97,67,57,42,
109478695987,-44,-1,-11,-28,69,12,-9,3,
109478695987,20,-1,-58,5,-95,-28,-24,-2,
109478710918,-42,-13,-39,-18,-34,-28,-39,-18,
109478710918,-36,-52,-99,26,-2,17,-14,-22,
109478726089,-22,0,105,-38,-22,1,18,8,
109478726089,31,-22,-102,65,115,38,21,1,
109478733681,-44,18,46,-42,-15,-36,-12,-13,
109478733681,31,8,108,4,43,20,24,17,
109478748476,-5,-97,-128,-34,-4,2,22,2,
109478748476,15,43,127,76,-3,-9,-24,0,
109478763482,3,18,-115,-41,61,15,59,27,
109478763482,-16,-25,56,15,-10,20,-18,-22,
109478771003,-13,4,-13,8,15,-28,-18,-11,
109478771003,1,-70,-44,-128,-87,-14,0,4,
109478785959,-19,24,88,56,3,-12,-24,-32,
109478785959,3,31,73,14,37,-9,12,25,
109478793646,4,32,1,58,-95,-1,-33,-4,
109478793646,-3,-13,0,-44,-13,-1,-16,1,
109478816039,9,26,3,-1,85,-7,-18,-14,
109478816039,-5,-54,-114,-5,-13,52,37,6,
109478823670,51,89,127,10,12,-18,-24,31,
109478823670,-26,0,-125,21,-25,8,36,-20,
109478838527,7,-27,-13,23,-45,-44,-24,2,
109478838527,-1,30,14,-37,45,21,27,28,
109478853689,3,22,19,64,19,14,24,5,
109478853689,20,30,-26,-5,-13,24,-7,19,
109478868624,42,32,81,9,73,37,18,19,
109478868624,-22,-28,-86,5,35,41,29,-4,
109478875850,-18,-50,27,-78,-39,-56,-25,-22,
109478875850,20,77,77,26,26,30,9,4,
109478891134,-13,-32,-93,45,-109,-45,-9,-6,
109478891134,-4,-10,-7,-51,-12,-11,-47,3,
109478906017,-71,-54,44,41,16,25,-27,-26,
109478906017,27,111,109,-8,-15,-60,-15,3,
109478913342,-27,-46,-121,-18,-53,15,15,-8,
109478913342,19,10,58,20,44,3,-27,6,
109478935999,-3,56,-10,14,-53,-17,20,4,
109478935999,-18,-108,-92,-52,17,-12,4,-10,
109478943522,-6,7,127,-80,31,26,3,-6,
109478943522,8,23,-106,65,59,-13,-2,-2,
109478958638,-6,-16,7,-36,-73,-8,-1,9,
109478958638,36,53,72,35,-4,-13,-2,14,
109478973697,3,62,-19,-59,10,1,-15,5,
109478973697,15,-35,-53,3,-7,-9,14,19,
109478988700,20,-36,-12,20,26,18,-3,-20,
109478988700,-45,-31,-34,-101,-38,-8,7,-20,
109478996030,-8,-4,89,33,27,19,7,8,
109478996030,-10,68,108,77,-18,-24,-29,-28,
109479018375,25,-7,-52,-42,50,3,-8,23,
109479018375,26,-9,90,88,20,16,2,10,
109479033486,-42,-40,-49,39,-82,-47,17,-32,
109479033486,14,56,80,7,-19,-12,-26,-2,
109479040850,-13,-28,-114,43,-11,-1,26,-3,
109479040850,25,-19,123,-92,-65,-17,-10,22,
109479056142,-4,-10,-128,21,88,47,6,-8,
109479056142,-17,-15,19,-4,-67,-39,-8,-5,
109479070922,-9,-58,-57,-81,-43,4,-15,-8,
109479070922,-13,-33,-12,77,84,5,-3,-20,
109479093644,12,38,-16,21,-6,-22,-21,-4,
109479093644,10,28,39,9,8,43,19,1,
109479101117,14,10,-49,54,-76,-22,6,7,
109479101117,29,44,16,43,76,10,46,27,
109479116146,-4,-16,-57,-15,12,11,7,-1,
109479116146,-26,-56,-89,-92,-27,-3,-44,-4,
109479123343,-24,-64,34,13,-9,0,3,-24,
109479123343,9,29,112,61,47,-6,0,20,
109479130918,28,41,34,50,27,-17,-3,11,
109479130918,11,36,70,-33,-23,-11,-29,11,
109479145860,10,28,32,-6,38,19,-5,19,
109479145860,-9,-47,-108,-41,-76,-30,22,-10,
109479153630,-13,20,-91,-50,7,8,1,-18,
109479153630,-23,-60,127,-44,-36,-30,-31,-12,
109479168628,-4,2,-59,-9,-25,-10,-22,-5,
109479168628,21,49,58,103,28,29,29,28,
109479176095,10,8,59,-47,-18,7,7,13,
109479176095,-12,-6,39,76,30,16,-3,-28,
109479191060,28,89,127,15,72,2,27,17,
109479191060,-18,-58,-128,-33,24,34,-5,2,
109479213412,-28,-6,92,69,52,48,-30,-13,
109479213412,-8,-37,-73,-88,-71,-51,33,-16,
109479220919,-9,13,-25,-28,14,-11,-5,21,
109479220919,-7,-5,14,23,-39,8,-42,-24,
109479243451,15,1,-103,36,-40,0,4,-7,
109479243451,-21,13,2,-58,16,18,10,0,
109479250834,-10,-44,-75,56,-32,-14,-12,-16,
109479250834,13,-46,42,-5,13,-2,13,4,
109479258443,-3,75,-47,-37,-45,-20,-10,6,
109479258443,9,51,91,101,57,27,9,4,
109479280959,23,17,89,-8,-28,32,13,12,
109479280959,-9,7,45,89,59,20,13,-4,
109479295923,-4,-25,98,-22,-87,-21,28,5,
109479295923,3,44,-65,40,2,-13,-58,-1,
109479310824,39,59,104,76,101,40,47,15,
109479310824,-19,-46,-128,-105,-47,-40,-66,-12,
109479325938,-1,-13,-45,-31,22,5,-6,11,
109479325938,9,7,49,16,-22,21,21,16,
109479333640,20,84,64,20,62,4,-9,-11,
109479333640,3,-66,-50,-59,-16,-25,-9,6,
109479341084,-19,8,78,42,-46,37,35,-8,
109479341084,-24,20,71,-28,6,-33,-20,-17,
109479363468,-8,48,68,35,16,-12,-23,-2,
109479363468,-14,-48,-98,-67,-21,-2,24,3,
109479378412,-10,-13,-52,-8,14,-7,24,-5,
109479378412,25,44,56,22,-48,-3,-14,0,
109479385932,-17,-75,-103,-30,41,12,19,-11,
109479385932,7,31,127,65,-3,-1,-10,16,
109479393652,22,62,53,-40,-38,-9,7,7,
109479393652,-8,-16,-90,-10,-12,-13,-8,2,
109479400885,11,-16,78,18,48,42,-2,-3,
109479400885,-16,37,37,4,-49,-16,-9,-7,
109479408349,4,-25,-59,-4,79,-1,22,-6,
109479408349,-20,33,123,-55,-56,-16,-3,-5,
109479416062,9,-18,-45,83,118,-37,-43,9,
109479416062,-13,-16,-128,-63,-5,30,13,-31,
109479430896,-15,-11,76,56,-38,9,-32,-24,
109479430896,5,40,27,-45,-50,-40,-10,2,
109479438467,7,10,-10,79,49,22,23,1,
109479438467,7,-31,-103,-38,66,35,-5,4,
109479445910,-11,12,44,23,-88,-55,-23,-5,
109479445910,24,34,-40,-30,73,71,39,22,
109479453480,-2,-27,-38,-52,-115,-47,-19,-2,
109479453480,5,-11,5,-28,20,3,23,2,
109479468472,-9,-70,-6,-27,-27,4,23,17,
109479468472,-2,34,36,87,-25,-3,-22,-11,
109479476018,11,48,124,50,94,22,-2,0,
109479476018,20,56,-94,-56,-31,40,21,15,
109479491073,-38,-99,20,-121,-43,-53,-8,-10,
109479491073,-29,-82,-12,93,101,3,21,0,
109479498613,-4,50,-34,-108,-90,-11,-26,-23,
109479498613,-3,7,120,61,-11,-44,-3,-16,
109479506136,18,68,34,63,62,50,-12,5,
109479506136,-2,-34,-128,-78,50,29,14,-1,
109479513343,28,10,127,27,11,12,1,10,
109479513343,-12,-7,-68,-9,-63,-46,22,6,
109479528485,6,-28,-118,-31,-55,-17,-8,18,
109479528485,-22,-5,39,-3,48,27,3,-17,
109479536048,25,61,48,65,-1,5,4,17,
109479536048,11,-51,71,-39,-16,12,7,19,
109479551139,-11,-30,-123,26,18,1,10,-10,
109479551139,41,62,127,11,22,8,31,16,
109479558633,0,-47,-109,3,9,18,-24,9,
109479558633,-17,9,78,22,-18,-40,-9,-31,
109479565912,14,50,30,77,94,49,-1,7,
109479565912,-10,-23,21,-98,-56,-19,6,-6,
109479573612,-8,-10,-120,33,-103,-64,14,6,
109479573612,-2,-15,-9,42,64,49,38,12,
109479588472,6,-44,-128,-107,-17,-9,-17,29,
109479588472,-3,-13,26,-46,-52,-8,-48,-10,
109479595990,-9,-31,127,0,28,18,3,-28,
109479595990,32,102,-103,77,23,21,-47,11,
109479610815,35,45,110,80,-31,-17,6,16,
109479610815,-23,-46,-45,3,15,-1,-23,-3,
109479618359,-23,-51,-6,-86,-26,-1,-5,-6,
109479618359,-7,-29,-43,-60,42,28,-24,2,
109479626120,14,43,127,7,-28,-27,6,-7,
109479626120,18,26,-98,68,30,-13,-36,15,
109479640872,-18,-10,69,15,-95,-33,64,-1,
109479640872,-15,-92,-6,-77,93,-2,30,-2,
109479656307,-24,2,6,65,-26,-9,-43,-26,
109479656307,20,74,123,64,18,43,35,18,
109479663513,15,38,-75,-63,25,63,33,8,
109479663513,-8,-34,-17,46,-116,-93,-79,-53,
109479678480,-13,3,53,-85,1,-11,17,24,
109479678480,-37,-128,-3,-81,11,-5,-16,-14,
109479686084,-47,-88,-128,-126,36,24,-17,-37,
109479686084,-8,-30,39,79,-119,-76,-41,-14,
109479693569,-15,87,61,3,47,43,13,10,
109479693569,-23,-25,-83,-19,2,17,-32,-7,
109479708378,0,-30,-53,103,-14,-35,71,-6,
109479708378,33,10,18,6,10,33,16,33,
109479715953,-19,-64,-37,-128,73,16,-2,-21,
109479715953,38,73,37,72,-65,-47,25,42,
109479738684,8,64,-3,11,74,42,-35,-31,
109479738684,17,-36,-128,-91,-34,-12,21,6,
109479746073,-47,-98,-79,105,-6,-1,-51,-42,
109479746073,23,77,127,63,13,-6,15,8,
109479753645,3,-16,-78,-127,-16,2,6,9,
109479753645,-16,-48,0,56,-29,-28,2,2,
109479761145,18,98,-2,0,2,0,-16,12,
109479761145,-15,-51,31,-8,50,31,4,0,
109479776078,9,-30,-83,-5,-22,7,-9,-10,
109479776078,-13,87,119,-65,-27,-38,-3,-26,
109479791133,-7,-21,3,123,63,-21,14,11,
109479791133,32,34,70,21,4,41,7,-7,
109479798641,19,36,-93,-80,-75,-16,-12,5,
109479798641,3,14,23,70,95,-2,7,-5,
109479805852,-51,5,66,-85,-77,32,-7,-15,
109479805852,-26,-91,-128,13,-20,-25,14,-2,
109479813375,14,-6,127,90,34,-26,-37,5,
109479813375,31,104,34,59,-27,6,14,17,
109479843483,-31,-63,-65,-84,-37,5,11,-11,
109479843483,-24,-35,-102,37,53,-1,-27,-34,
109479850834,20,39,64,4,44,26,32,22,
109479850834,-4,-13,-75,-8,-32,-5,-15,-13,
109479873775,-10,-52,37,-59,-51,-42,0,10,
109479873775,12,94,103,9,-14,10,-3,7,
109479880930,-24,-54,-97,39,-37,-33,12,-11,
109479880930,8,-20,-91,-24,32,62,-17,19,
109479903345,35,-55,-2,85,-61,17,-1,24,
109479903345,20,89,65,53,60,9,3,16,
109479918372,9,42,45,25,42,35,40,-9,
109479918372,1,3,-109,-89,39,15,7,19,
109479933387,-52,-78,-122,-66,-32,-48,9,-12,
109479933387,4,-6,69,101,36,23,-33,0,
109479941129,29,90,71,47,-64,-6,47,26,
109479941129,-9,6,77,24,97,64,45,9,
109479955909,11,36,-61,23,66,17,15,15,
109479955909,14,56,38,-37,-66,-16,16,22,
109479970863,7,-6,-58,-48,4,-19,-14,-10,
109479970863,-32,-66,-128,12,-13,1,-17,-23,
109479978371,2,-2,127,41,37,22,41,25,
109479978371,7,55,29,-22,-123,-75,-42,-12,
109479985918,11,42,29,59,103,58,9,-13,
109479985918,-9,-63,-34,-39,58,27,38,-4,
109479993642,3,-24,-26,-74,-107,-33,-52,-15,
109479993642,-12,-33,-27,-114,92,10,21,-25,
109480008472,-1,6,54,101,27,16,4,-6,
109480008472,22,-24,4,-10,41,17,-20,20,
109480015823,44,109,75,113,-14,-34,3,1,
109480015823,-31,-14,6,46,-2,27,27,-8,
109480030975,8,55,53,-121,-40,-25,6,10,
109480030975,-44,-99,-128,-14,-49,-16,-44,-36,
109480038649,34,51,109,38,33,3,16,26,
109480038649,52,27,9,3,38,61,-5,13,
109480045914,-71,-50,-89,-57,-15,-30,14,-37,
109480045914,11,28,3,25,-124,-74,6,19,
109480068424,2,-54,-105,17,37,14,-10,13,
109480068424,27,31,114,35,86,-13,-54,-55,
109480090914,-13,21,-6,37,31,49,19,3,
109480090914,23,9,-33,2,29,21,12,19,
109480098572,-58,-10,-73,-24,-92,-13,6,-11,
109480098572,-20,-4,40,38,31,7,30,31,
109480113371,46,7,-86,-23,-24,-14,-50,4,
109480113371,14,11,127,47,35,16,-21,-14,
109480128415,21,33,62,-49,31,12,1,18,
109480128415,20,68,127,91,16,-2,-2,5,
109480143666,-17,-30,-40,-38,33,14,1,2,
109480143666,33,4,109,-66,-76,-28,13,16,
109480158458,-4,-31,-41,5,-36,2,-52,5,
109480158458,-8,8,30,89,21,-8,11,-22,
109480165913,7,93,72,-29,22,10,42,-7,
109480165913,-4,-22,40,47,30,32,5,19,
109480173679,54,21,-12,11,26,-33,-2,14,
109480173679,-38,17,-106,-39,-56,2,26,4,
109480195794,-10,-7,127,52,32,18,-3,-20,
109480195794,0,-27,-124,12,22,-30,-9,-11,
109480203383,69,-22,-77,29,-27,64,45,29,
109480203383,-28,78,99,-110,13,-32,-15,-21,
109480218329,-27,-40,-128,101,-39,-57,-63,-20,
109480218329,9,35,108,39,-40,26,33,15,
109480225866,-1,33,11,106,117,37,14,-13,
109480225866,47,35,-76,-2,-22,-25,20,28,
109480233616,-6,-55,-37,-112,-49,-18,8,-4,
109480233616,-37,-117,-128,-128,-20,-9,-59,-10,
109480240887,-36,40,68,93,-16,-30,-25,-40,
109480240887,4,-45,-12,-9,-37,15,23,0,
109480248309,-20,40,19,23,77,35,-23,-35,
109480248309,8,15,25,75,-61,-38,11,25,
109480256178,49,29,92,-106,13,-10,-10,-4,
109480256178,-8,6,-31,61,-8,11,32,24,
