weight,trial,C1,C2,C3,C4,C5,C6,C7,C8
1,0,2.1453463814838156,1.8619548685924987,1.9613494326108103,3.8322793114185254,2.0473407059394235,1.9496085164307884,2.6828851463014423,1.870595740039255
1,0,1.8463900825286241,1.5711433760341174,1.8479766804265598,3.9989523122425554,2.3195779959429643,1.9942706138671995,2.531507727213285,2.0879067341919573
1,0,1.9491753630538613,1.6636219470037716,1.7135308045734703,3.8697094755882606,2.116266356613289,1.9860892463928699,2.4206657077322005,1.773662871142952
1,0,1.9691437102541116,1.705768963558008,1.8843366738096077,3.7716098116071697,1.8003435807920498,2.3561601382325734,2.6238345816627358,1.8334474850776914
1,0,2.0317300448315883,1.6782756471786044,2.106390640127242,3.4012698768863343,1.621350537332759,2.2444040244712413,2.934708730527983,1.914669077476913
1,0,2.2085500066258503,1.732007860957088,2.2429936502989625,3.9532947272177505,1.8433995675052048,2.1959875528411392,3.0784105514335587,1.6643077174386094
1,0,2.3560956708921053,1.9784311607758822,2.1564385934734798,4.303161528156843,1.9487921605208816,2.3177818199707683,3.3386085699228416,1.4319342245640407
1,0,2.0428570026251474,1.6987125795425255,2.123941466680537,4.33388607553359,2.00585982699581,2.0715197414948774,2.983909918682902,1.318177697808085
1,0,2.1179999160853495,1.541448516193789,2.2889211572587924,3.9261341629043973,2.1362100598164804,1.9825496491561885,2.988071166855599,1.4468241830287765
1,0,1.945553900243551,2.032123805516661,2.4837755063163645,4.748828227968466,2.2177414691217283,2.129367835853811,3.002072038261475,1.4108547336209016
1,0,2.1022006426023756,2.188454716701584,2.3448183906292184,4.214942425240116,2.1437704281505088,1.8571410345930872,2.744551213437446,1.3151370774073932
1,0,2.24745666963506,1.7280704661398316,2.2110223804184304,4.288583428363385,1.814056722938659,1.9878769093142152,3.0048344289026176,1.636413918297367
1,0,1.900408327378322,1.7591172983834995,2.431251466098386,4.6507851681073,1.72574172273396,2.18422649425363,2.715734472846439,1.275631625152454
1,0,1.7602236820829311,1.7845486751114306,2.4349761832377967,3.812160923590962,1.9212084090427888,2.3740108978263645,2.6099401854647857,1.4320966322214839
1,0,1.7128885742188875,2.141283049882006,2.4152566147737637,3.2710304689645797,1.9735045759242282,2.048958255826773,2.754728777768632,1.6923340842195322
1,0,1.8054462521224095,2.043409666943782,2.4062233722316284,3.4609244578545835,1.8260054874320153,2.125313889423095,2.454622716987122,1.7499074761237785
1,0,1.9533929206172262,1.894760775135284,2.5825473448390315,3.1770968886354534,1.9076430368776391,1.9122281974097448,2.2591398667329705,1.9347534576141165
1,0,1.7789113856309662,1.691792477005826,2.380404498680225,3.0782420183704273,1.9556538972098327,1.843594442027164,2.191333783435563,1.9884296136645518
1,0,1.6632071004621307,1.743684441693035,2.068400395883094,2.872901613524674,2.2472377714113216,1.903825574176188,2.360540993421693,1.6520333428554985
1,0,1.8785520762271541,1.826112716561345,1.943983066666345,2.9856601223866726,2.0085409203602627,2.336462125469018,2.6700733480725067,1.553519650985142
1,0,1.6338972626180415,2.0001590378580114,1.9498064149133427,3.0850825657625527,1.8791016857108125,1.9508026957005655,2.4826355403394778,1.4082879457539819
1,0,1.7197365326187757,1.8773766531153715,2.28729780499727,3.0673462671975655,1.6781718709970703,1.9491398579984334,2.434853447510094,1.5559570089234322
1,0,1.673329652674014,1.5397332669634691,2.249415336292348,3.257942290713145,1.8775428477283655,1.9912590355987612,2.6003115774444585,1.5956529503110752
1,0,1.5821290870991418,1.9154503862357142,1.6973956362246159,3.198114508179398,1.8884649402462363,1.9860716068336484,2.455894714413997,1.6971934223747442
1,0,1.7237109222315334,1.9744134177622372,1.8701086719969253,3.434157826191348,1.9457353456378996,1.781293528819863,2.4856035634504474,1.4685917394990202
1,0,1.5061299956488106,1.775964765598777,2.0114415485184725,3.2116519316291257,1.799313402811657,1.9754457089299216,2.730876497484388,1.573447217863254
1,0,1.5723193019414832,1.735253454324159,2.025497014551971,3.4685199792671435,1.8751584636940708,1.9196649729950006,2.494394776123598,1.597494170443104
1,0,1.8076006301700984,1.746761082799453,1.9947039508624902,3.702654267792589,1.8439405636938013,1.9437294192434835,2.6375948836276706,1.7683544492442624
1,0,1.7150897540681735,1.8550571231191992,2.0659804209176493,3.7308995760478703,1.8869767206708572,1.817687228434709,2.773231300497142,1.7394038990761147
1,0,1.7443098491232054,2.039699420906214,1.8203868169391535,3.3159435709455223,1.9131181982125602,1.7351752471215862,2.6943537920727207,1.5705640579294229
1,0,1.9545007747177636,1.8660479086948776,1.9804696224402014,3.6243950765100927,1.8040248717873513,1.624509962465435,2.7936895796799157,1.4577346945329417
1,0,1.5170437777471677,1.8643300532242217,1.8116895494586476,3.065564999342098,1.6496409579027196,1.540410838293202,2.2634120083522853,1.4703906798217348
1,0,1.7453867868605135,1.866348624095519,1.972105570135666,2.952196086438069,1.6834812641193146,1.6887282623784199,2.3103641018629943,1.5671746774418667
1,0,1.9233922559300214,1.630101135298588,2.028473973380232,3.147480072809004,1.8410534955434132,1.5599300979116286,2.579522995479804,1.6581304991954458
1,0,1.9982594261550093,1.6821125687105263,2.2473161836699083,3.4483548492143243,2.0645725909449855,1.7292626753769968,2.8818998283884003,1.536699174590754
1,0,2.129092751301776,1.8358334250142698,2.2899968257730574,3.292136783709348,1.9695854345129833,1.7799862776251427,2.9838685313089335,1.7094870673298295
1,0,1.7965767642198536,1.8780785131576612,2.2500655571460486,3.0252678488765214,2.0980294419628267,1.770846685988241,2.763443620469366,1.919609193797688
1,0,1.8605712353783872,2.1234940880492448,1.945405454569427,2.8573242487887613,2.1748136832268123,1.9660381253573682,2.9048686017656156,1.634909179452246
1,0,1.7065741869785667,1.8676994169199674,1.9013227081397284,3.081634700655768,2.1985265635974764,1.8051714064289448,2.549645133823383,1.5976056417686257
1,0,1.6562525189774129,1.8500079056961873,1.9734429019714173,3.4906844487464426,2.5016828079519096,1.8599326479605318,2.799142977701035,1.849084505628462
1,0,1.7263749651522546,1.9763243692642432,2.0610995029718224,3.2085252186930298,2.4177830716471838,1.9074742214356153,3.053318773230873,1.769980352543315
1,0,1.8671925307218946,1.8331586658152308,2.0948345515252726,3.0542822067756705,2.7278211571151454,1.9726320125290324,2.7490480256875145,1.4447559179978573
1,0,1.7396739394386396,1.6356800327442444,2.063734509695813,3.383367180754591,2.549537019524933,1.9710177885807967,2.7469027927674827,1.5112546623463141
1,0,1.587319301724119,1.7369414355412842,1.76327366036581,3.320178516729128,2.663470538386626,1.6414751261849099,2.6510449525390856,1.4117573708303528
1,0,1.8474105713444504,1.7742157522487845,1.770932998763285,3.202722083417018,2.514933648122053,1.566751121875189,2.702352973882861,1.4624693419786774
1,0,1.9159129555919132,1.9330269707443721,1.970421481672651,3.707665508335128,2.3572334866052813,1.4696993477525888,2.7088969236014306,1.7799802948717285
1,0,1.8963852966413959,2.0938927369200586,2.0522420599086977,3.4319857908851783,2.094908962178693,1.4719713551771185,2.3034842845691736,1.6776362892312737
1,0,1.9745642471318865,2.0648983892447865,1.977213406781085,3.652394305059528,2.115435279697277,1.6010257298163084,2.4355710220988738,1.6887170139571708
1,0,1.9220233032874166,2.0994260489211465,2.182303007834477,3.7534358658330804,2.0589155951966243,1.601613130269141,2.582915205236258,1.8441970189439916
1,0,1.73394064296425,1.9765061065370124,2.368803109493797,3.9402381560225614,2.378214381918098,1.7881154263226975,2.8474316362132273,1.8418643265302876
1,0,1.9400705613186702,2.053861407277834,2.4486707438335475,4.190013896976776,2.429981433693118,1.7575018946795065,2.9184074145903036,1.9786545473574637
1,0,1.8202781662102712,1.8100199019762129,2.2721507699142034,3.861550616921244,2.6667577527285387,1.6429869153573307,2.8073406872958415,2.03735877380926
1,0,1.7150187384866138,1.8668726443906525,2.40460831975822,3.076412574092178,2.5023375446657172,1.507088987506166,2.3127509901187535,1.854013071982935
1,0,1.5001656289879306,2.063168860999407,2.39843064241859,2.764058678285912,2.364356900364315,1.734064474327304,2.469914051100207,1.9268754846913367
1,0,1.5534987304187342,1.783605913461749,2.3130822725811218,2.6719355030013476,2.319978437098767,1.3619757305101134,2.707018360280433,1.7933925463306966
1,0,1.5778830231797445,1.6216240041994754,2.3442916047279434,3.032713557467311,2.6305723871749715,1.2486649021352858,2.742211297592902,1.771897031434748
1,0,1.4216746360763641,1.6108785080524213,2.467483476653574,3.3291824011176754,3.0361895546393582,1.2485986325235092,2.62223807860216,1.991378880035215
1,0,1.516313152050562,1.8181092944281032,2.858930778243913,3.3235447563141283,2.406806276631715,1.3829234403600112,2.6821013026753295,1.5400178283421349
1,0,1.489503444004812,1.95959026887053,2.8353691011392415,3.4233975139414063,2.543640294476884,1.3360911054848104,2.471045294615319,1.7313232645385144
1,0,1.5559918361222138,2.0402621048622294,3.1156291940486187,3.7460787907854423,2.7282678647187444,1.4537178008944436,2.528957749215833,1.6124222879697616
1,0,1.7804121105490653,1.5999883588335857,2.7753666940843766,4.604184827574803,2.757712541743291,1.680057793855237,2.9603709165860903,1.452047350983721
1,0,1.920996047313098,1.8164440928463892,2.8405561856488073,3.9126335454593253,2.5232019139279815,1.7569580694949438,2.918822535667761,1.5671332826305093
1,0,2.051097926256426,1.9082682292413244,2.6821572960182367,3.638652926237143,2.60908646615249,2.0583611317435864,3.1574279380271557,1.695559568457619
1,0,2.022200727861864,2.2675360414638988,3.0873671066728585,4.086225595645249,2.4792300042970172,1.4023009835315658,2.3922074235490225,1.4838906052254706
1,0,1.8149236813499128,2.0404207747717127,2.693444339849381,4.112456943129377,2.551989779061711,1.5495170762534354,2.4014489659643186,1.3227931874019005
1,0,1.8860911359920651,2.078279071620875,3.0294858775696407,3.8927573694931987,2.823278250443821,1.6656379380833495,2.4865443889952306,1.4389952686613736
1,0,1.9204422306009028,2.0973124154666944,3.1434221901900328,3.8400807850173666,2.1497296936373043,1.459578481011698,2.599497556036267,1.2548550006438346
1,0,2.051024815346357,2.138919035027317,2.476818597808511,3.861796682082233,1.8893357669551512,1.540179649366194,2.656932064427078,1.0598662250799813
1,0,2.1703069336011134,2.3113803610141326,2.1901427591462626,3.437981434378647,1.6436783249715903,1.4204568170913323,2.388443488912036,1.3200366558288685
1,0,2.4396730761243064,2.0598414816384483,2.4487605293608827,3.449151329825372,1.77051634348525,1.5001628864547065,1.8733456819498637,1.3395704599751102
1,0,1.8555891502479744,2.3923778109773655,3.035324966351194,3.3360766384441356,1.7238033717662182,1.6000197803087681,1.822694029546332,1.4522828696790544
1,0,2.0856682760747236,2.3738914969655136,2.9477161432838814,2.9514770682513642,1.475896425944025,1.365561392031495,2.0248052427450483,1.0985992794498645
1,0,2.45908509972574,2.301989277636497,3.1719341124752893,2.9511088495267868,1.6744512619589633,1.6134097214476204,2.238819209135255,1.2477452763281773
1,0,2.21880655083252,2.4931277356529935,2.867801390039028,3.5462388458024248,1.551340323328844,1.7688220625508426,2.786454470423145,1.414532541651052
1,0,2.096225116323345,2.2746901620709523,3.176085977406367,4.02325669903416,1.7326936942529738,1.6129211010290851,2.3474922781101606,1.3521512652031076
1,0,2.3938342535507493,1.686224729647368,2.5957163510998273,3.042310443181891,1.8780139562347795,1.8239265099335287,2.1750700851850544,1.3615544202487597
1,0,2.0187058585341378,1.6278239833781343,2.392004773333296,3.232060428260873,2.0221265687900507,2.0212460939143297,2.0827548335511925,1.663674556526562
1,0,2.1464974063952176,1.7180467904795256,1.8173517086499869,2.905583951102606,1.6747601130189647,2.05318868294542,1.8214841383579605,1.7425737744057455
1,0,2.2290642339526103,1.7658451521010883,2.279207597665044,3.46509587095251,1.635620697560287,1.8957801774802143,2.130451313715232,1.634211208398218
1,0,1.8972051726684305,1.8549679709965383,2.4040697163016014,2.602869216967496,1.7161940444649622,1.7752669862396149,2.128226307702179,1.4087766438135791
1,0,1.809162537975742,1.8558503897729575,2.482569937171715,2.8059056327883387,1.4227253698864173,1.8170349250901607,1.8332676484588535,1.4809520726488545
1,0,1.8913313160739977,1.944571545131295,2.5938306303870897,2.9242162685251025,1.5607021848088536,1.958437449614142,2.0037116828887087,1.3882693818799585
1,0,1.9730700379005126,1.836992980193652,2.9103254839829606,3.0185294570267747,1.7713304373737881,1.9047257085562719,2.436845807407102,1.5216506771347051
1,0,1.9171216600008798,1.9305737801363534,2.9951683520033314,3.397557878261801,1.787763788117082,1.9628055379801312,2.769069451878973,1.3576004126012988
1,0,1.5268331481777895,1.9490280529791384,3.408518685106456,3.652230408750989,1.7603641753967667,2.1250134906859084,2.6275157276928165,1.300107987123281
1,0,1.4932728551224117,1.837562396061463,3.5467809527701553,3.2933284926144037,1.89224255978382,2.2311631354471553,1.9784246287337799,1.3083393686884788
1,0,1.6815753424115327,2.0136684026148153,2.8761701350340694,3.4893741043326285,2.1246517345869584,2.421177620166976,2.093804786898582,1.3902648602358965
1,0,1.6678265378851023,1.8012903108470397,2.8252264927207302,2.81809020425453,2.0156286720477747,2.407775777288177,2.1293123855701572,1.228339447020104
1,0,1.7309217096009475,1.8899848484252038,2.333813767208714,2.950972257182935,1.9537809874085716,2.599430142174345,2.4047979730356133,1.1540826747156328
1,0,1.8868917367748475,2.0514342514801864,2.4549083452886356,3.049285414116723,2.2130057265250462,2.425248246982929,2.5414756240102525,1.2160056180472827
1,0,1.8371441374350568,2.0197608812228243,2.439528713800451,2.9868906147368,2.0654802428357537,2.1134574660082146,2.301624606614711,1.2561351807001673
1,0,1.5651508477855103,2.2742786581632517,2.5526630133817285,3.3858816492355883,2.0915335676253757,1.9924499298049911,1.8963477842236331,1.2417229185799306
1,0,1.8241054449313057,1.9360127847957,2.2484857509221925,3.763219930880847,2.56674384937837,1.7403729203838922,1.937285361340834,1.176908009975932
1,0,1.8662384347904275,2.194452677607691,2.3337257407245393,3.496740364329349,2.7870147292795133,1.6903486333150881,2.026366475513494,1.208255408913792
1,0,1.9457287919767325,2.1966235907160687,2.099833105439866,3.4454983929717584,2.3143360875657515,1.7707899952400663,2.282384517464085,1.1999842055615146
1,1,1.941560203110511,1.5276556825176595,2.817837042114903,3.802479112772067,2.1078903499248893,1.5315152754388932,2.2142591162043432,1.4386425782374532
1,1,2.318776178204727,1.6447193401664155,2.85870949728605,4.272668307477464,1.8526661963945705,1.7125438810608684,2.2965837938803704,1.499963774469011
1,1,1.9183079277448265,1.9823952283326032,2.398237062951337,4.426704018286535,2.396554301911281,1.6349158272849784,2.2437684436995977,1.5454155585001177
1,1,2.282155837540309,1.9963464221309817,2.8690258606559227,3.4332826783329615,2.847835725452291,1.8839298193167924,2.20992206199946,1.1540384091823281
1,1,2.516533439447217,1.9837989392610034,2.9773321588688515,4.173805783320017,2.6367526409453856,1.80575213161093,2.2019563040639327,1.4065822862951545
1,1,2.773789061919909,1.8670097220016724,2.7194963735063618,4.020942326759145,2.6387308369789073,1.9492063259609715,2.3323791833900582,1.4769054414232012
1,1,2.2463104724538723,2.1610909126441267,2.6345578383228045,4.352404210433547,2.4065842180772066,1.933416442406331,2.9156219740692744,1.6683298571446374
1,1,2.5413751747859212,2.286140869919218,2.9616720874439966,4.786395031479219,2.520411889528786,2.031803228209638,3.3879924661061667,1.4900382422292042
1,1,2.330161844521316,2.3475178043643488,2.5888524776383885,4.818557949165014,2.561187273188771,1.9064122702891355,2.392757227480496,1.1417404938205065
1,1,1.726000596814816,2.054537609861136,2.577101506949973,5.180515655362562,2.3069624392435943,1.943410674275098,2.743669452989741,1.1590705295344839
1,1,2.0707036403267134,2.124857253709966,2.288473324615183,5.572923654410817,2.548441499577182,2.2391204684578074,3.0594202363156215,1.2795178620496541
1,1,2.0583497142010283,1.957746440456651,2.3475977757408732,4.3601482142175465,2.501361589412408,1.335598832857898,3.2317443776725527,1.613054215605513
1,1,2.18252881516607,2.0763136594648404,2.6338964096012005,3.9929799787945384,2.616990766690138,1.5158393978324527,3.312645218704205,1.788660733111617
1,1,2.396614427912856,1.6739406431620254,2.1829763666930044,4.8406854042048755,2.4218188494429636,2.0325960365690494,3.676687940940389,1.3504110099442466
1,1,1.9572591696027337,1.8731494670976017,2.368455256527571,4.948478409722446,2.5086740083637444,1.769357691362991,3.351038154804472,1.5827748401171062
1,1,2.030435707219732,1.9190248328821855,2.2736220043486726,4.955812747502079,2.242572702795321,2.0238306238441575,3.5101221855984193,1.4553512574253125
1,1,2.2414834969735553,1.9853471602135342,2.5018362082343013,4.51083622819598,2.157065413485452,1.7360668924575533,3.651157735711669,1.5971329115150927
1,1,2.0216939836814865,1.9307290594245996,2.573076781278643,4.514528079746927,1.9388509252984274,1.8225454339599874,3.3053597809006883,1.5891297330883936
1,1,2.4694752356017933,2.1042781453254347,2.8917178513008537,4.161169269463848,2.227471970151363,1.816080767522444,2.879775592245874,1.8091340124685678
1,1,2.107657021343455,2.3490873269434336,2.6802767863536046,4.239498908514414,2.514241091259114,2.008674118648189,2.9152064512300937,1.7914219273457692
1,1,2.164528991169165,1.9319437927568943,2.6423780606102567,4.127139579620039,2.6828952378908797,1.7871838083521998,2.6544500378375573,1.8666304500908257
1,1,2.2224171501332908,1.8789573746593036,2.6501177131994615,3.4728681142156947,1.9458572556532967,1.3434784818526477,2.26507476590797,1.7575139666139294
1,1,2.1668610945366504,1.7885222534900946,2.6366201368715894,3.1688054367638037,1.7850826693339514,1.3044642005660376,2.3406872751849,1.6860453922314798
1,1,2.0573429762256357,1.6212123810872758,2.41149544277947,3.052663221161299,1.9479859825316643,1.3820907513466203,2.448921421005763,1.8972048874356415
1,1,1.8297932555494736,1.6791680824194517,2.230779373975186,3.217967917257092,1.939205504770382,1.5222912511860571,2.5862995179988313,1.83035508156427
1,1,1.79803439625165,1.5443483575754542,2.3049745378031177,3.529105625305147,2.056328741958816,1.5247468484778408,2.5805113122983054,1.8067149927239214
1,1,1.8313057618777888,1.5772144253822344,2.3118050589211996,4.0744071481664745,2.1306623737548542,1.5065251172467433,2.749896690562807,2.0092919637821165
1,1,2.2338733891047204,1.6222453638018153,2.3435019256019043,4.321678245737292,2.427296957799064,1.6923048459029688,2.404579771876996,1.957506070730128
1,1,1.9631186641010299,1.8920763588690244,2.5200958007047687,4.430049541985288,2.3500802330254356,1.6337679033432582,2.641189493420751,1.9570295231548098
1,1,1.8302827520339184,1.6602510856860424,2.115697867472887,4.269501498652243,1.9122889313695555,1.7520433339155392,2.32457151072398,2.1464412622921754
1,1,1.9514725914657087,1.8332951898535,2.4325865315096373,4.40762089571393,1.811529047796382,1.6470021915897322,2.154956442437003,2.290192423528463
1,1,1.7315224682104544,2.0530601276450264,2.5347613925981984,4.547841528566707,1.8813489655230544,1.6344528282300557,2.1242479445374296,2.118115045048322
1,1,1.877095718890635,2.0153279555416663,2.331847737696639,4.18259182793125,2.042835339335927,1.7986638739655203,2.402406163892552,2.006346864331049
1,1,1.261008578375364,1.7457948229217843,2.352033668240703,3.5960720261924073,1.9899453089713612,1.726940337004687,2.128299025714098,1.9343824065361572
1,1,1.4126040170415604,1.9112005836165384,2.5707580793710654,3.434081597015612,2.151899534871413,1.9811464483616779,2.209098376946533,1.8889556791802755
1,1,1.3097629029829256,2.0965194927873467,2.5548602243797993,3.7208212435585897,2.4841476122432056,1.6456155436640085,2.3708758344037557,1.8093301735491338
1,1,1.3783391665195874,1.8980512176824895,2.899230191567621,4.233019191669045,2.7000586678203735,1.893649855569593,2.638639643958679,1.7732511019249486
1,1,1.3359831227608816,2.084702791318059,2.9073340827078007,4.62694690035115,2.693389470533503,1.6932084984231375,2.7117845826282125,1.8045362018270195
1,1,1.6940930567306478,1.6684005679220264,2.7233412961888,3.455324227247219,2.3863026051847798,1.6670295460248479,2.517761596211871,1.9338552701162959
1,1,1.4980653583898638,1.9522473559418136,2.540894110312165,3.9040542880829965,2.148436610854367,1.4516901780374722,2.615185430628799,1.795746468057081
1,1,1.4095731095374466,2.247393322355926,3.2479328712337643,4.020906158248626,1.8485179793914945,1.616447781032065,2.493375793429121,1.5789649058031188
1,1,1.2852072478928849,2.3613050910322877,3.3252358348198183,4.038492407053581,1.5457314774921918,1.5349876152292472,2.4913329068095895,1.7711365083365609
1,1,1.283836796802603,2.3143646888483573,3.2519239022820314,4.2921210536333945,1.6675868231024369,1.689087705140647,2.4274907219953468,1.943941761876222
1,1,1.0063378434883543,2.417939895676705,3.547463981422909,4.0314411484840305,2.002509228647033,1.701242654442743,2.8185667277988125,2.1151468803767868
1,1,1.1147345913872135,2.041410011586965,3.428939859632386,3.182741297095895,2.1008704993751457,1.706709765675343,2.317766911951524,1.7948858098625027
1,1,1.1655232116324863,2.290891425635986,3.186950277117538,2.8718072780063815,1.6023288074879023,1.6657490705952123,2.445297052967138,1.71018194124377
1,1,1.3045446917607395,2.050803899262961,3.238950495918138,3.2682529111462837,1.6979421308754847,1.6841964517742927,1.9975811988202306,1.549987651317712
1,1,1.5140220422697113,1.7985988292586956,2.5667098120409615,3.4371514078036465,1.8472637436902037,1.6066187339235771,2.14709165045127,1.5535940539522513
1,1,1.6049989415984354,1.929645765332621,2.5516310805974465,3.5487278899383345,1.8921561064657104,1.807576351434177,2.207333137953627,1.538194063226151
1,1,1.839647022238248,1.890849849971643,2.7560936985074895,3.712222465367915,2.4647802410470128,2.054715193409983,2.2936315286286884,1.6143332943244821
1,1,2.01708391808705,1.469409823100112,2.5651941837481043,4.307196722661973,2.114168079153734,2.0938704323575545,2.7275131142334197,1.8117603975220122
1,1,2.010110080907844,1.560732152086078,2.730468408119857,4.229549271537525,2.054946792334735,2.154933510642583,2.3610884339294373,1.426324822901081
1,1,2.142318271681631,1.8234314160704157,2.6868443686786474,3.9874938384450362,2.1378261949963915,2.010558497216114,2.481924046304562,1.6070918548926267
1,1,2.0325812029643506,1.4751816351253817,2.705546490537207,4.192407894597102,2.3091481265020217,1.7413483563102805,2.5470340978900654,1.4308192285269146
1,1,1.9916679365454792,1.4685677748516843,3.0324201981174497,4.194619526988554,2.3063640995998105,1.69749379649613,2.8673610100639118,1.6678988800317993
1,1,1.7417934187887385,1.6403315930326987,2.6679837835263083,4.457022544778431,1.9772792201659422,1.9259999437380702,3.041486886408288,1.4977153526297746
1,1,1.7513210240674282,1.8103090736212961,2.8369976054435533,4.415519319257302,2.0353429867614254,1.930714217512166,2.7023954748198173,1.603113405123376
1,1,1.780304769777324,1.7342101996621264,2.6532117634646855,4.7228826780072,2.030495131406429,1.988099951840598,2.800182919052682,1.637961438230002
1,1,1.9250109494298264,1.4598181048210754,2.5736862279554256,4.478618812642332,1.7698485924151197,1.9601685161191815,2.88120107096583,1.4979041723527293
1,1,1.9203498891440427,1.2727288265619978,2.31747074684731,4.403062260298826,1.9430156714324338,1.8657436667038714,3.0687421844575806,1.3668231892422391
1,1,1.7606188055574563,1.4118531488245976,2.6224042267143384,4.792295486147664,1.9885564803631257,1.6696533584243543,2.883585170692595,1.5175356097175206
1,1,1.6074946934267123,1.492601908469045,2.7636934491589917,5.101218805718224,2.050914078501298,1.7065089129699624,2.7471420761631413,1.5027911017318027
1,1,1.6312926050463443,1.469923515230823,2.792902469978564,4.549222247567593,2.2112127615340467,1.7842090937382105,2.8331551311940855,1.6612333121911058
1,1,1.7686122486012659,1.6057517709540323,2.661276933151367,4.18949029536533,2.374525811324945,1.45450915944712,2.9604478402308874,1.6022480788649331
1,1,1.8746591110656534,1.7767178599386142,2.5992208688367926,4.486633910141178,2.434300483077359,1.5690153217522567,2.9405985626655813,1.707829638439771
1,1,2.0045118307932817,1.6548395673114265,2.5582626588680157,4.4994553024482045,2.1935442683615776,1.7577328047852832,2.684403928290382,1.6341907779365048
1,1,2.0163648428434833,1.7781749823323088,2.3288359691656755,4.666656363680315,2.433743655402111,1.7548123996247131,3.0705698888679978,1.8456846092000871
1,1,1.71571990217114,1.7378977768113777,1.9801292648881825,3.8637524581751106,2.0113366978826237,1.8874552904940718,2.8370912061195535,1.6877986903452444
1,1,1.822321348271239,1.6412624899815025,2.5653406499723066,4.326800302674227,2.2573284284136337,2.0306058303873042,2.8581401542196643,1.5337937982066197
1,1,2.03109022924052,1.7570228324425963,2.5063488382071593,4.103711346130956,2.1685177798025195,2.3001728493116715,2.934912138178559,1.6276137184895636
1,1,1.9729654742791272,1.9773338113810264,2.5994949451977845,4.3508619025043505,1.9741409524540738,2.3432796962476456,3.149854787899839,1.5508226804938228
1,1,1.7674335090036832,1.9550508997473475,2.639266847669416,4.930563590587233,1.9874641368807484,2.413140737017392,3.375349257105859,1.6844770288498336
1,2,1.7640596903291714,1.9341523596797456,3.09309695202318,4.291742790980844,1.8205561313304919,1.8713865888492025,3.9454213534667733,1.6955052262926316
1,2,1.9365554755913605,1.959674831923423,2.915378173160326,4.322657021884188,1.9040483467929454,2.1303972702055933,3.735097288701989,1.5027924370460801
1,2,1.70506145216191,1.3794356101015164,3.5421626542004443,4.927783486303814,2.1248917008534556,2.168154338409578,3.112328645328952,1.347580115542696
1,2,1.7662573315288523,1.4734032019207712,3.7758498545930017,5.27010999988096,1.982866819367229,2.3628959534341947,2.848609529278806,1.5499538482439614
1,2,1.822781508153467,1.5008017498783088,3.7418817631750687,5.455088211632401,2.2360196588079573,2.2644880037473785,2.9061777862907023,1.5047023063697842
1,2,1.9131326879317945,1.5140451480354538,3.7781973267179128,4.207314723308853,2.188261723000579,2.1766513819796924,2.8531136148873584,1.2323446578978023
1,2,1.9095255020745054,1.6912212477155426,3.53708882737985,4.356673329319904,2.0434025892094394,1.9919907957665004,3.2149793536283395,1.3558551187114662
1,2,2.0630073868556438,1.850750967874515,3.6718042585921857,5.137195848246193,2.1734164310944633,2.1386556932850174,3.3463628281229716,1.3717524194955046
1,2,1.9801413807198884,1.7385659084680511,3.9386707262794998,5.468490717495788,2.1236089333140753,1.5150580362485524,2.928847700857685,1.6322703836666852
1,2,1.8693474401834484,1.9946270930499628,4.62363305633065,6.0246314389767734,2.2860671566059354,1.7395035131893795,3.4016631052342166,1.3166976155322074
1,2,1.9909550713535165,2.2515696224900315,3.6825678845340946,4.703212134045289,2.0223483948591787,1.9300065080703115,3.147203122316589,1.4153372235471293
1,2,2.0280548281737194,2.2885691031911786,3.7857548041199562,5.0367135388828155,1.743030147332657,1.77430077373804,3.270128444979841,1.6009850338219695
1,2,1.9273808389068547,2.506045453185545,3.947332939807752,5.261036023159809,2.0451572431761593,2.1088064489722513,3.283854700405656,1.507434886818251
1,2,1.741748424277748,2.395553606897482,3.886613632509827,5.275937893605335,2.0949088083564726,1.7530858570093106,3.0712001385473595,1.5337362595613282
1,2,1.975936742291138,2.5145959763519636,4.4986969095296185,5.309973046563191,2.4810300539751062,1.9022068916018309,3.05139114092018,1.6181556846545033
1,2,1.977656298934819,2.876647225658855,4.492091714399755,5.728497618034704,2.3742949450026174,1.7441554300494668,2.98552374983957,1.6994366348446128
1,2,1.8260538006231593,2.4744123155178612,4.451069237234282,6.18625696445208,2.423041563400245,1.5156995448986266,3.3644546862099562,2.035725002520564
1,2,1.8160671173635854,2.6499557239083344,4.361920426852521,5.914190144425892,2.6557886099839285,1.6733394857520607,3.526071027333667,1.930101280430101
1,2,1.9644346840115625,2.490562373895247,3.2202747466589625,5.417790115520654,2.5024658341842216,1.8943802160927696,3.619669039954583,1.8150283455640717
1,2,1.847414057121479,2.205868898113275,3.0517211157803925,4.045732825458474,2.572895538946415,1.8574331124633277,3.5712461950937593,1.6937800627300061
1,2,1.9317818514484255,2.521822298109065,3.2555703724153395,3.8975492369692772,2.669266535597341,1.8559316389806422,3.6058323564446284,1.832985440799465
1,2,1.9002213294721513,2.200173338122963,2.7941954780517104,3.915284249826744,2.885330796446769,1.7945363657260671,3.7548021887188465,2.093999790214491
1,2,2.133079150697897,2.358434112897556,3.034704934657904,4.194362455164201,3.2179354891653857,1.9893724637803247,4.10436020852085,2.3353740929626925
1,2,2.160412446770575,2.465362188500273,3.0176877928870085,4.330191602347473,3.2209187128465917,2.17190326516318,4.5562022623929455,2.1987730083625023
1,2,2.1404910151031897,2.596759214223712,3.302157112720697,4.5052790934599125,3.107204391775179,2.2081016550760646,4.470556307884086,2.0386808945384405
1,2,1.5795394736934787,2.091849372408698,2.4751314205118518,3.9536988165550078,3.2541941170429993,2.0527556158379894,4.246122855879829,2.2055756049736464
1,2,1.6205956219918207,1.9089127271700748,2.51907419938112,4.175814896718866,3.2419881522673903,1.9986030785442297,3.7766762657591446,1.981238202972684
1,2,1.6484193971003724,1.9484657616163306,2.8395131455892706,4.546882023131299,2.8927386571518134,2.0301118019522075,3.5708829898862096,1.707531039919214
1,2,1.6593052563099722,2.048339197716161,2.9674713470207306,4.980773124607402,2.8434355790261563,2.0095275340911862,3.913917993895791,1.8195157608091215
1,2,1.7601757315303044,2.1993041798030415,3.211673484448866,4.911225631695588,2.6629205036626433,1.958918804281515,3.670296513008705,1.8378857748652464
1,2,1.8616589529835081,2.1890771776215736,3.3458362341647434,4.880915756702719,2.708829991487887,2.1280136294885397,3.7797521282337003,1.7891674469428096
1,2,1.9126120037551613,2.268394408170921,3.406108771228818,4.837472584938629,2.818939452016596,1.9679127239333043,3.4014317352742176,1.7488525681248974
1,2,2.000658321342207,2.2038232870378316,3.348996777953631,4.074398111728593,2.9652979650054694,1.7161637134878407,3.26704977707018,1.9758236596846588
1,2,2.077829021147145,2.1981456258275056,3.0421423057714194,4.62357530868639,3.316526906840639,1.8279770954125452,3.006260062362128,1.889038510556853
1,2,2.260800582652874,2.4667536008268094,2.6241855285404467,4.339793380391633,3.109514349773402,1.9566186033681674,3.162407505825703,1.74663222745826
1,2,2.1546295349236715,2.524477417974991,3.1533181811490705,4.350255542464873,2.7995309392291894,1.8537652315220712,2.6740434409072673,1.5502344041596938
1,2,2.038244280368329,2.2049435512315165,3.259368311673496,4.734164651618013,2.926023348823161,2.1381362413675307,2.6255482218473247,1.7301994252170094
1,2,2.4276867608453014,2.209089068925619,3.6050305689183935,4.629604891014839,2.565854048342567,1.9880606445283648,3.0706694643401513,1.921367074145241
1,2,2.370628831216756,2.4801378599465997,3.3229622199336544,4.313773819883433,2.562928475868991,2.0602681189238714,2.7286290311689916,2.0282435827557768
1,2,2.302405945106718,2.1241601652595734,3.4454721124428436,4.700813858601098,3.13927841981016,1.7482869708488253,2.9116608867603064,1.7771333010622767
1,2,2.4375273545665,2.1796750568764294,3.5365413176348426,4.862325508074387,2.6247035560228236,2.106948039385285,2.7876330885491356,1.971569573946046
1,2,2.315079625719157,1.7251351360019151,3.596876838305505,4.009005076105797,2.9337692594454623,2.1241125986056937,3.0403566651646408,1.8834063890097605
1,2,2.359923221064145,1.5942862220946694,3.341493654274403,3.6239480806966355,2.9342059830490967,2.284220893238378,3.2924069023762144,1.8179897226884143
1,2,2.585503728226989,1.8270350018322294,3.583211507538823,3.6263340255512078,2.9827326247176793,2.419034968301494,3.3505171765024775,1.9518267918484162
1,2,2.4350646770828335,1.6023092335028493,3.607090615157239,4.014238730691898,2.7296306832623016,2.135823122923384,3.4439839925732776,1.9118911599725557
1,2,2.2942611407626257,1.7753687163911018,3.908384584312193,4.147290244216854,2.544125232477077,1.911428379820328,2.6524204365888657,2.109790126725234
1,2,2.43614713737585,1.8107939051404376,3.5052854572259178,4.12437759862744,2.5160376960267627,1.971943854828448,2.7401690121093067,2.0876999166253825
1,2,2.418205953380064,1.7013334857418667,3.7008087624390393,4.510802420395246,2.3142657137228495,2.111804810009875,2.8979089754824483,1.9895830133127905
1,2,2.47524877591068,1.8982437810036346,3.466406442877909,4.5434671263214925,2.209050829428276,1.8260311936766982,2.885825153638047,1.936641042058168
1,2,2.378790502168201,1.928305372062973,3.492102255001513,4.264398520347899,2.411492301955093,1.9760890396627062,2.8974274875432955,1.5948242116578837
1,2,2.239227372809766,1.9007613211982892,3.253029571875548,4.33953066093775,2.422165190890544,1.9405586313924403,3.037530856134056,1.7169002372272861
1,2,2.211243739149624,2.0256638655269894,3.4217522930729674,4.634515756198217,2.6164929383953655,1.8272508298292192,3.227906381639065,1.6981286333754098
1,2,2.0908120048614673,2.1754249207520484,3.51804996239745,4.519012822561932,2.3992451032017166,1.59520515291733,3.072451740381956,1.7381151417928642
1,2,2.2212181018250012,2.2363715888524967,3.4030302932466623,4.567793847480032,2.4296581507917607,1.5159494178582202,3.1998863904212067,1.7979530687180703
1,2,2.2142102576044924,2.3147673152444947,2.9414477636384886,4.217786015763762,1.764660843009712,1.550323442067236,3.2269808035685386,1.9501780708925356
1,2,2.163256456729836,2.4488335802833308,2.880526208399625,4.4161802206785765,1.7225952927773371,1.6278400069412142,3.0578775686613797,1.992773847297375
1,2,2.425353483250718,2.0870088233443065,3.0212265358557584,4.521927022748821,1.887619148520427,1.8226765904836066,3.2912260329737055,2.0360271886866728
1,2,2.2523490238487844,2.088783738987582,3.0205271347436278,4.479274287975698,1.969384908275633,1.7094763996050126,3.3082444225871495,2.0982941897413045
1,2,1.997710889064971,2.397003126079249,3.342645663767573,4.780222194483165,1.7140887644436154,1.6650610746647296,2.6987009381351923,1.7734527705142216
1,2,1.9179569382474877,1.8700722080378671,3.3391906279750647,3.790446456082603,1.7777101101245332,1.8039658832659815,2.655347932841379,2.125183470683239
1,2,1.7471967225672629,1.8846350553516515,3.3517636959210244,3.926369508793205,1.9308290539322297,1.565518294547031,2.522261452868015,2.310515140808357
1,2,1.9831821919217292,1.8730692713784145,3.382523714991796,4.1189973651126675,2.19753453759895,1.7009826321222907,2.4161976773050355,2.0294420355978477
1,2,1.9641635476635912,2.0448991955088993,2.8136261495646138,3.9350298155940147,2.456920456342841,1.2854926050009905,2.6923751517718917,2.024988900942371
1,2,2.3217984060149837,1.8762589132857164,2.9522212676260198,4.220078921801282,2.3125608990810567,1.4624319505470778,2.5080199048620715,1.6967189970719943
1,2,2.2442571641987334,2.0843711075152473,3.2644776923212135,4.102957637895577,2.1844666019699366,1.502884681575777,2.522034296380443,1.8719887170399097
1,2,1.9539003220141,2.290744829025806,3.3995711432793505,4.387737248027423,2.1732885346843775,1.7304037459197523,2.6829629015177816,1.864034572826766
1,2,2.1576519325918073,2.1377151267121204,4.166756368554595,4.206728322697164,2.2818224241206253,1.6148054643868213,3.045958598948105,1.7285648314391309
1,2,2.0226595790207194,2.27741674930613,4.016113293691382,4.260922742164378,2.1249142214421295,1.7800578891564593,2.739997662624497,1.5111424766966575
1,2,2.5741066028985435,2.7620914568996686,4.445207676983085,4.6633797389868015,2.6965117442117643,1.8248098181001744,3.086923357807806,1.8229687040536906
1,2,2.001610429065036,2.303651293927298,3.746262771295288,4.7230182325334145,2.1507795667932323,1.474686029928536,2.770535310012625,1.7648219307615423
1,2,1.9315449528615716,2.318095109478222,4.0634992467111655,4.492717432275375,2.1957871188166114,1.3120280681874648,2.1387154577258842,1.84456871496328
1,2,2.3339072493171633,2.110866844364512,2.9895499237945065,4.00117688488181,2.6763494449685368,1.2646993389456047,2.03241555222688,1.5867211877883542
1,2,2.0813981519622993,1.9661027457725506,3.497683476515613,3.824249160508251,2.7360631896666963,1.4867801051443592,2.200635369466612,1.3290935793290233
1,2,2.271487400597384,2.1759783737083898,3.1863642006071653,3.896516731839709,2.5591752115441397,1.3646062839274904,2.629068868651027,1.6138189143707729
1,2,2.4414038361696124,2.1700589546469393,2.95591894314445,4.014844521252269,2.494471395559362,1.4599036693032756,2.3159588483257996,1.6110759738658762
1,2,2.3709840040611176,2.1374370680405894,3.0565381562383385,4.456342130658211,2.2051603555440678,1.3858957803057452,2.5426313274537784,1.4272529753016039
1,2,1.7072265032799094,1.7334717745223214,3.0735759696481244,4.19211548242736,2.170572847249044,1.4298995697725871,2.3612704865268905,1.3643172604706593
1,2,1.8118104244798752,1.5928971582043139,3.1200759197318306,4.695230744170554,2.585658936083166,1.5978328906395598,2.203298741938913,1.5626791019682669
1,2,1.9428537650056237,1.7726502231136896,3.2987497399964294,4.0941276868341,2.1438872958795616,1.7267732184840145,2.4137315172731815,1.596059861523973
1,2,2.179543020073502,2.0441753471728905,3.481997432151644,4.170317646620685,2.2632271146804253,1.8662717441424854,2.6399654966651354,1.632190916826276
1,2,2.1804235402651035,2.2677393484545165,3.6534292911628876,4.528563491393761,2.4167230993497215,1.7624703836059894,2.6265100428247194,1.662587925125225
1,2,2.1871464726952685,2.3989566787614263,3.391535043033758,4.048005905120219,2.1987004717756524,1.7711142947836642,3.0239552192738968,1.5604811114916795
1,2,2.2284230983723683,2.5247164033767326,3.790184832550898,4.362476511911379,2.5140433721390485,1.7756402480786246,3.252385984310395,1.4854885434187226
1,2,1.9917034081987173,2.727088941204828,3.563314877457316,4.157933120096741,2.356068732518455,1.7642086557104741,3.212618700293892,1.66685731064925
1,2,1.6476803661128487,2.8200556152796943,4.011745293796069,4.400405693790026,2.46452477791171,1.8920182957757048,3.1754725445429264,1.8630130523862436
1,2,1.5517804613990662,2.226888955054311,3.273586289059891,4.783946224092782,2.375824707575293,1.554736354041148,3.0615837687995633,1.6100336854141128
1,2,1.4851081323460538,2.471177590405986,2.9808228427514805,5.471593999049958,2.3914436613825,1.705604288019207,3.1882032593989345,1.7318077881032339
1,2,1.8582644384393692,2.6461862876847664,2.932418489689122,5.33599381088757,2.4075244763043133,1.679336899295017,3.3940273779035994,1.6997138222690455
1,2,1.4995051972502251,2.2582886711959755,3.047240541413036,5.504929211053526,2.3741153500615795,1.822584605581648,3.852805918279623,1.8090412647702159
1,2,1.3195688826820156,2.534201068975037,3.14287488909669,4.940206295653302,2.604033595179984,1.9810343728752315,3.522895745494941,2.0788274330854093
1,2,1.387496684722958,2.0649134183992772,3.149899026527771,4.752974019859342,2.3212165646841467,1.812414039464792,2.931760907102856,2.0273092122980363
1,2,1.5520838069468796,2.051008403453649,3.4161738000959523,4.591107850360303,2.135665448811306,1.9423455879201603,2.933234186443084,2.032860855403415
2,0,1.526366553437627,1.135990380756858,1.927192190144737,3.153881441705065,1.72898951278926,1.308695043431596,2.463085873377303,1.4667041895358013
2,0,1.5813376728247304,1.2636162591354752,1.660761602565586,2.8644247816816604,1.5397735441835347,1.5512009467817691,2.6092970657168966,1.564936452310281
2,0,1.7444394531487843,1.351257378960675,1.725429407410253,2.945338712421226,1.4553603142523341,1.5605999401836093,2.868127515863986,1.552095321629888
2,0,1.7664649052121157,1.4933345667494575,1.670436450114565,2.827208203432722,1.5250126253588419,1.5941314938188123,2.3385334169052645,1.7227955193563973
2,0,1.730793406882184,1.6459614781939853,1.5691766042721378,2.8153968195031207,1.6413992103903585,1.520694470169526,2.35006522609123,1.6264976779966207
2,0,1.5411409785638281,1.4649686913192663,1.5837527516686167,2.7870129922709936,1.679629738071515,1.4526112023562552,2.513612933907655,1.7652953088430592
2,0,1.675111492050747,1.6611257110899729,1.7835331910533525,3.2592111758077085,1.6865918090072816,1.5338874275631542,2.176925822819927,1.7229043223091476
2,0,1.556546447313062,1.7796275874191616,1.5732843083714092,3.1633779699670477,1.8699283725767808,1.4607978266506896,2.0314716117570857,1.453585886364527
2,0,1.4783341200065407,1.7851831687657167,1.6556566693385624,3.077194623949858,1.9555672791249759,1.5200922804812205,2.0670270279290244,1.3999445270783013
2,0,1.5737322659347437,1.9156996410014582,1.5079918041094504,2.9986718416804137,1.5454840017576306,1.559494091171015,2.0615165125587507,1.436875604632787
2,0,1.4796346970329648,1.703242806512223,1.4557209457167801,3.1176651149864005,1.508168066034885,1.7556491694471608,2.0973655170608785,1.506126973275112
2,0,1.6267131473674037,1.839064326707607,1.5913670524706576,2.770023443956451,1.596981879097908,1.6966258030562278,2.217820519963488,1.4556349762031446
2,0,1.7453998368005061,2.039025938232204,1.7283826364540285,2.777466407571796,1.7789983205299913,1.7439528274770988,2.071189705291844,1.556334146919632
2,0,1.7666088769453308,1.9423339902239802,1.7258745124100152,2.703899219633797,2.1017468619428734,1.9082042562719068,2.2438262074449122,1.675607785762222
2,0,1.5984111864012567,1.8033409020389257,1.6242970163942478,2.7438326128008867,2.176523206132861,1.6167570962418276,1.955984184819844,1.6615538783215993
2,0,1.678061252657707,1.6251445981547614,1.655532440985324,2.8574504064267274,2.1593774759064126,1.712903609817897,1.9756252362855746,1.5158660997104463
2,0,1.540647768381315,1.8169465383967855,1.7810515110810026,2.9755684821020423,1.9774249754761921,1.6860376129167856,2.0487149950954278,1.4964100623684646
2,0,1.626225706627347,1.915958889617359,1.7260227031517188,2.945511409430261,1.8832399126517272,1.4223202120866016,2.3656421573752016,1.489611921852652
2,0,1.8854807074557731,2.1680570778240744,1.8405886804299139,2.8243750224922297,1.7513195332917788,1.4798524445609205,2.1698544047605135,1.4599365246580298
2,0,1.8512063219905768,2.180163990765483,1.7133953924456695,2.8080484064687314,1.9617238465752531,1.3952138362386624,2.235819780636301,1.6448883612790297
2,0,1.6084778018168673,2.103926365317376,1.6837652772631777,2.9830409595595504,2.152821210872901,1.4922772449785522,2.389831049025861,1.6582660189952743
2,0,1.5480785507179242,2.0213415400217323,1.6144451696426938,2.992315449533337,1.9358874744748198,1.4799369210093378,2.662503473399859,1.644658732387084
2,0,1.5322141665178388,2.117440230750951,1.6497385438954082,2.6931216299661043,1.9671612754148986,1.5631790611277963,2.6045571024025422,1.333070354068198
2,0,1.5275291377736493,1.9419065581969903,1.7853345101754452,2.3838909570595477,2.112364665150394,1.5099015526539152,2.767896733258653,1.437379804524546
2,0,1.6085300860128022,1.9477841372273041,1.8966219263441617,1.926146768113116,2.0072788841732105,1.6314309225085002,2.6087017108302897,1.6161186654560535
2,0,1.7212783573328936,2.0707896137279653,1.8388962274037668,2.1129172980228774,1.9197384741430943,1.6564439676682685,2.580220552471665,1.5290917177329213
2,0,1.9109533430718302,1.9632192127657369,1.764627717317594,2.4083700050646075,2.079757826267518,1.5027777718610342,2.749160332118099,1.694065484219582
2,0,1.8000692694577787,2.0193040912371854,1.7957642964512068,2.1715127284814812,1.91102579130329,1.5534666606288852,2.552072779772586,1.709781069029086
2,0,1.821858767316418,1.9733182621397394,1.8778177827730844,1.8917619512589805,1.9484359644371605,1.7775277176382989,2.6914484511620453,1.8742281419257192
2,0,1.520379587259892,2.038288706893065,2.008413962068823,2.1236172938078863,1.5655348788691472,1.7806003156749775,2.3744698946582403,1.8746382277018585
2,0,1.3931092954077833,1.9524890053177926,1.6419974689280807,2.2858677372211353,1.6565902680847473,1.6521507511996603,2.5563487093596025,1.9438365603660657
2,0,1.3017264452509518,2.0143753058727567,1.7403190956336279,2.5923729728863267,1.8609635316274187,1.520475439642869,2.765420585353665,1.839805736513659
2,0,1.3670081566914798,2.0006305267076567,1.6652961443557057,2.4686702793548525,2.0225764857576043,1.5593891250177299,2.681408530020088,1.8683591988436739
2,0,1.543852183974126,1.6739711643605297,1.6937956683862447,2.383299590802626,1.8830261565050799,1.3898883276696457,2.728931315617621,1.8014893126567588
2,0,1.6330262197668322,1.783691731880097,1.8707174450467887,2.602076815068091,1.842694637043309,1.5560829724099976,2.7771587588792617,2.1068409063873665
2,0,1.5652115496837151,1.6734210529367333,1.8860902484992874,2.893502125002454,1.9289716264319792,1.5365471720480253,2.949753221747759,2.1165645891416967
2,0,1.727451504459263,1.895601591981594,1.8455227262299876,2.6259012402548696,2.2295454720571204,1.3894807126881272,2.948452829400807,1.9447529144370874
2,0,1.6322642408526908,1.8286218429560515,1.9177562896503608,2.6540942633015647,2.4346013813991774,1.5192683292127225,2.431005312595358,2.03728442650344
2,0,1.590403583673017,1.8446978284948168,1.7315820060377378,2.570694324092557,2.2044495761814757,1.4174364563149102,2.1896495585955216,1.7176470525314724
2,0,1.7807211370429998,2.0329333141226797,1.8782625691939985,2.3965569076927955,1.7389884346921842,1.3263299554517778,2.366322834626025,1.5166444678990467
2,0,1.6079526877168369,1.9327079500388376,1.919629826134618,2.482566403082671,1.9465479650517645,1.332806576750534,2.584257320941857,1.5463074844606497
2,0,1.5910447061175736,2.065838732548567,1.9386905454253172,2.431647364135185,1.7456274032805454,1.3697266634910208,2.3311003542293904,1.4582245898548925
2,0,1.7072971724394588,1.5206567626124021,2.353141083221316,2.8728387627519094,1.743938002950094,1.4451348904199448,2.2491139039573076,1.3987574433029735
2,0,1.763134505205372,1.5880118431742412,2.20295266786852,2.3587443945275393,1.830524453077374,1.3526096951981246,2.072541438183892,1.638453469388262
2,0,1.9182432650974144,1.7680325929717975,2.090018766007683,2.689813292082215,1.4652285390590012,1.289811696042175,2.1639096434271763,1.3644375268416038
2,0,1.921936194160924,1.5326845231676822,2.187453565703692,2.7055519903100484,1.401203632983164,1.4557773992145358,1.888145496341949,1.3177248008235802
2,0,1.5384384028505744,1.4505071748371225,2.39387194375346,2.6272889514661055,1.3359367190602311,1.6871629567208035,1.8673684891202573,1.49533597624435
2,0,1.4744607461047405,1.3881227479859486,2.2926808249581314,2.583909501251777,1.381203746970411,1.566730247959761,1.8155110354557615,1.6409883059165766
2,0,1.5181661534036068,1.3219361580108941,2.1798582373884083,2.4844903633239763,1.4634029438649034,1.5809256513571346,1.5071083073340625,1.5448370884754956
2,0,1.6779970465157708,1.363807379363033,2.0854742119358605,2.9724884376129705,1.5057830756707942,1.7106141201724356,1.7679996324832623,1.4464752135533097
2,0,1.6985843272038774,1.4742957609343628,1.9749680167073855,2.4869551143682385,1.6722192064599328,1.6340634250587258,2.0730905204523986,1.6662782183576208
2,0,1.5779388365502323,1.1858903733398334,2.1184606194088507,2.7664541502773767,1.6443155083977876,1.816908547887158,1.9021136358548745,1.8119177558052084
2,0,1.4394628381601053,1.2850337774076004,2.3335665421834646,2.6964609295865287,1.2876863000133285,1.7480127724415633,2.176412519332248,1.654181857251085
2,0,1.402392885024287,1.346945667340869,2.450507118384653,2.571976708029771,1.3394121606145069,1.431526262440084,2.3975497112844844,1.6607983551494394
2,0,1.456131417839189,1.325448072233399,2.5207662263946067,2.8276227685858837,1.3890980158397346,1.4532852280672623,2.277044174724423,1.5818642332494866
2,0,1.504227518147096,1.2462481585080352,2.293884320067958,3.000049580998205,1.5692069896259389,1.3842975569618046,2.25160725241522,1.5836274755749142
2,0,1.6206178795477078,1.1880849237369662,2.7993400684878003,3.099379272433274,1.6766945872046368,1.519767102478246,2.367277031469599,1.6630253637122985
2,0,1.8549110000263813,1.2853532306910425,2.530581998790585,3.0420920933663895,1.5312829350336257,1.4948739809410703,2.411895597558674,1.7949448949996938
2,0,1.521889464067566,1.4073921830496416,2.4528202948877063,2.9818257670949917,1.7073580505954338,1.3544162326075808,2.6469920411560883,1.8924958851302678
2,0,1.4223783434092419,1.3381823695979171,2.1945312077354275,3.1497753960384025,1.633872865463159,1.4274575235184064,3.01199213078288,1.673953062779511
2,0,1.4835066530352083,1.2473520011857575,2.1673016768851467,2.7982188247895525,1.8815622475076221,1.4082899227396388,3.0992265487378825,1.5659920950225232
2,0,1.5422189238957362,1.1893743678688637,2.1804901134356878,3.235130399006535,1.8564933557475518,1.5618658941735128,2.7665024492115236,1.7338631671484006
2,0,1.567678837459855,1.3386773429657408,2.234227543632303,2.904477305471868,1.9602235537442312,1.6554346412426997,2.7577639642883813,1.6584167024306402
2,0,1.5271443709174486,1.6401363550870907,2.368577581745962,2.7300942949766727,1.7384352495119142,1.7065217500401892,3.278436916224598,1.6680791320767607
2,0,1.7264122082300886,1.5818250688994002,2.540603497016942,2.855335544441615,1.852598853120377,1.740202274373175,3.019359040167086,1.735545720096726
2,0,1.3969472185472325,1.7824434963699578,2.3972934143758944,3.254879354842753,1.942886218071238,1.6684151042236641,2.857018386757354,1.5883301381603212
2,0,1.3866874557421507,1.9748031435683653,2.4332652051855104,2.936359326897628,2.036941692984103,1.8046249775113103,3.2004914936280517,1.6823522357584395
2,0,1.3390564508543954,2.153081089513752,2.458896259571772,3.272201530371168,2.1443814966310093,1.9045375740512964,2.611187887782977,1.7451308701868171
2,0,1.5545160432944019,1.9855205303651193,2.333894193059635,2.5031760222467323,1.7849241562091158,2.129477499717482,1.9213426773957911,1.878666949065203
2,0,1.5202754077552563,1.8953219711742362,1.9124483092308644,2.7122560821007946,1.7600017951316849,2.3556427117049066,2.1364809260821715,2.025308498086428
2,0,1.6574801905681555,1.8475749049375243,1.8396318437508825,2.6288962122001043,1.9631315718662203,2.0156086804711433,2.315454742627351,1.6278635149946945
2,0,1.557310509671096,1.9091658823633295,2.0126288831541235,3.1511517283866173,1.5131767083126728,2.0762906681014752,2.181268841800897,1.788298495121332
2,0,1.6011454096901165,2.0747188814653783,2.1719424991172334,3.2691779496947784,1.746817834545398,2.1106257976471507,2.311358353027163,1.8370005533243892
2,0,1.446636251020736,1.9943487424974784,2.2854330146582216,3.5051545894523075,1.6525949295422127,2.3118864900808966,2.202692480272442,1.9533295247102995
2,0,1.5367844457328943,1.9495005011368778,2.0674451604330524,3.0083853336649367,1.484417047402779,2.2501914611855423,2.249483656659613,1.7666134519145942
2,0,1.6250483984476418,2.277880185286751,1.9362997325447586,3.193229468299437,1.4474278267741327,2.238088342937013,2.453632520136984,1.728063187161216
2,0,1.9807980634522708,1.816291925301632,1.929152585822353,2.651364213741092,1.5687687420151641,1.783600617678295,2.4014805651684603,1.7448757863665145
2,0,1.5362463447784303,1.805048497022776,1.9991931062090669,2.883083446540671,1.8780054702150444,1.809827855819032,2.186796089610935,1.9698245997453743
2,0,1.5361804200213485,1.6434028040930349,2.430776823701585,2.64112160054722,1.8137425833737255,1.6098279411821306,2.166890197064396,1.5746945579600773
2,0,1.5945849072775227,1.6528631207815963,2.350228558060061,2.9365196639798175,1.5233219387428862,1.6812928338212707,2.0623258463679726,1.570938660971576
2,0,1.785796814671658,1.7304530754207537,2.358575094663212,2.9433384144251438,1.6294121076253372,1.3460098170061692,2.2117191611009672,1.2449214991835842
2,0,1.7442320745371005,1.8232432816480209,2.4262275232848314,2.403359328912952,1.6534642739279095,1.2368583624862712,2.0235550929485235,1.3351141590174203
2,0,1.942592720163043,1.9282681765878373,2.1006003469355004,2.2869761771215114,1.7673770778838949,1.264064383988489,2.145179900546867,1.38468294540567
2,0,1.7592857413517409,2.136575249696794,2.042098922614105,2.4177649058659116,1.696708178261589,1.295246372199099,2.2086765398417465,1.6016898964265582
2,0,1.9015814248966547,1.9716896296159179,2.0112791963832333,2.3354050874840775,1.7513431656803204,1.410719098434712,2.5086177562100143,1.620631967001099
2,0,2.0562410315804476,2.0531424113313155,2.151799825511039,2.43977548979698,1.8788910617410617,1.4505940128571886,2.6619107304670333,1.7209142561952389
2,0,1.9041805325078083,2.1075458781885157,2.1496674543013956,2.7177440014680654,1.9996423872940303,1.7745851570872426,3.0749651507052467,1.8015545563253414
2,0,2.2186895617151094,1.8191790307308013,2.2310065071827467,3.0493374372336053,2.060369857917386,1.545179056593675,3.040236206671304,1.561072875090092
2,0,2.127296149481128,1.8351923981049134,2.1635436098482947,2.9243548885421036,2.3473211740973774,1.6209437740150014,2.7213769219885773,1.6643193411615393
2,0,2.0221205938689835,1.7572386941248066,2.1908520915154783,2.6667442241982835,2.3206551838818616,1.5638897543372265,2.842811413783883,1.6546596877684934
2,0,2.0791399499588508,1.7139705350294134,2.0513816603689317,2.7309783292786474,2.5411400853647987,1.7323178588649168,2.7749018688796934,1.7803990678618111
2,0,2.054134489694053,1.8476138225349308,2.1201991602641055,2.459382024943344,2.1242952213595157,1.7764391343686592,2.7118555285515082,1.6112291879443859
2,0,1.8660019015482954,1.7269801967959546,2.161736430608298,2.7443382199668807,2.0638383373089133,1.7393720274367512,2.9185761522020237,1.5832964926634454
2,0,1.6094019727313287,1.7013267947821886,1.9388584792433496,2.9179667284800948,2.091715679154455,1.5211541214730486,2.501320642083117,1.4346072938827032
2,0,1.6200747527062704,1.6368028054541728,2.0521548138065016,3.133041932585075,2.288229606573095,1.5248587014127515,2.63497305688081,1.4002928829000187
2,0,1.5887235484328912,1.7970628680852807,2.0385417215284796,3.1828671789015215,1.9593593446810107,1.5590745724670618,2.6517390741121245,1.4711169339470793
2,0,1.6039811605089394,1.8271585847180745,2.0784393077451697,3.346772556620915,2.063366802835214,1.524645654740244,2.686338062436989,1.4854702167456009
2,0,1.6379533186592252,1.8140867540837837,2.2943134353401016,3.300648807737139,2.0276338737303554,1.603256212138942,2.6244893073887323,1.5358700673297483
2,0,1.8377610076624402,2.0234296109250334,2.27259695914057,3.1740960082306393,2.150047164450062,1.6320573349981717,2.551928965668773,1.5789030599235707
2,0,1.4698403158133282,1.9928320028396151,1.9449246176133212,3.042204645700172,1.6593363044158118,1.549604427233427,2.3709233824272635,1.592498105644611
2,0,1.443974210476865,1.665760776061442,2.1008750256951396,2.9184829991240853,1.7480468639613633,1.6308415545332593,2.3591572084655286,1.6861109401644145
2,0,1.5595779080815402,1.7855041341945082,2.024116950559302,2.904781827217072,1.8365648654448434,1.6508612370919464,2.555188130993522,1.7489900144793062
2,0,1.5735382539040326,1.7736436543709337,2.1061212605581785,3.1873975049649865,1.8189947187652797,1.7873688036287754,2.371857714473952,1.8803353661343967
2,0,1.722308068434333,1.7364828159224206,2.091552291000523,3.2787958710888767,1.9548367836152623,1.764410070822572,2.2236737066239933,1.9693878271883083
2,0,1.8302982455340342,1.5846918352967527,1.9636156999757783,2.8206994992339176,1.8894197696497588,1.7788756841031375,1.9162713066678656,1.8929746069060684
2,0,1.6282649182191924,1.7645250640021846,2.296603091276935,2.805235744549843,1.9594763739971346,2.0835873985995708,2.263599264655255,1.8790222725109824
2,0,1.573248771524814,1.9076151320623285,2.3429590571729144,2.8962741682456303,2.0135977090420645,1.9798932403520126,2.1956278375473186,1.9622916577164846
2,0,1.6903413568012962,1.7917244521681142,2.1179183192247235,3.0786356214626975,1.9334901959535642,2.1002727647793913,2.2548654481860906,1.8056226358519893
2,1,1.8981776632438834,2.0056310115487843,2.081890834337417,3.0879018349136724,1.6081657931580535,1.8495478101013507,2.528241582116655,1.7171503709543825
2,1,2.037580181579977,2.181779178720072,1.818130743711369,3.0026819795697244,1.8819195450375203,2.043879702800255,2.445773848625019,1.8188373284656143
2,1,2.164234551492063,2.19416437324628,1.9281046965612743,2.7565094550579654,1.8596358570657314,2.113964643245657,2.7116887923250395,1.8360144455890757
2,1,2.115990462195806,2.287560030631834,1.8181703708321066,2.8173999000023087,1.6940060989596424,2.280993930312743,2.7577628578111426,1.7238345966467714
2,1,2.0376951827105687,2.332136958242442,1.9211793530983772,3.0098264712677483,1.7890127981377957,2.114718547575167,2.4929186765262346,1.5853100518761243
2,1,2.03533552477114,2.4622877540264105,1.9560435773751101,2.650776679700038,1.8019986769195337,2.1510867615701996,2.7529631100358745,1.4386408954886873
2,1,2.107458414697355,2.339419839434328,1.9401843507955883,2.493592766238868,1.9202264540259961,1.9802497093561393,2.3353656633345885,1.452638681389247
2,1,2.0540140968693703,2.3127780080881437,2.1780257849349502,2.5762020566876207,1.8894040185058592,2.188786699341539,2.4184164966945363,1.3947932114280233
2,1,1.914029239016461,1.9985661841385067,2.0520440300426817,2.6564111524587593,1.9582717435152643,2.0618198552217915,2.3530241600122657,1.443055203043805
2,1,1.8636967368822261,2.2161732141259978,2.0592014193959383,2.5710782842351523,1.8276436560306082,2.075260981725576,2.335544315497026,1.431709320523472
2,1,2.0258964355588747,2.10099927943344,1.9340887703890068,2.741157259222079,1.9460948568999263,2.0853141334248884,2.6514345439902693,1.6339390108859746
2,1,2.064521824074228,1.885450703190807,1.9313154796687433,2.353451693631506,1.9608967584521495,2.2084514934122583,2.919455564769857,1.5658205200642674
2,1,2.108501990576451,1.990487539308949,1.870429141743331,2.5759566573210297,2.0328482635832317,2.202443286283074,3.185943721100992,1.4585448179531333
2,1,2.0960653743811104,2.0242731523215944,1.8244436944357394,2.2438134370727965,1.9995253967598874,2.184224309183264,2.8226305809216834,1.4767279122907566
2,1,1.9824812270665442,2.18189021764753,1.8421765878425853,2.3236041739048288,2.0762953327374967,2.1227967825835248,2.7971097813136896,1.4783887846145622
2,1,1.8833856849469006,1.9179564546751018,1.8309942071792613,2.369350024891374,1.9963164235279058,2.150293034957968,2.570224527632793,1.3786580718773005
2,1,1.7820065479429552,1.8292109214938044,1.9400870925788385,2.4962187390443153,2.226526120442953,2.1968222558965063,2.682339080998335,1.4824250839964888
2,1,1.7872182163335661,1.7780137824281155,1.8181236662572358,2.429768888623292,1.963875806720725,2.0801584404560454,2.423600743828262,1.482698225035847
2,1,1.8362795953837678,1.7561636421699165,1.8556217104848602,2.312369068677486,2.1636962038177256,2.021069868965871,2.504973771617704,1.5524163780322906
2,1,1.8240933764088403,1.8093379141854502,1.8545725703137184,2.4751945403342783,2.156691877693392,2.1658695710199023,2.3985790499310258,1.4953464919431858
2,1,1.7637562527869026,1.7822026983021848,1.9295744064169966,2.5407623231699246,2.0416722784531096,2.350434579393454,2.437532252430246,1.5227250775399306
2,1,1.7010018793211967,1.8398425342499614,2.018797352097732,2.6198819211739823,1.7922716996782793,2.2591480243075073,2.4705320180542913,1.6183546037273426
2,1,1.679337383309939,1.9663541613684796,2.126747963503485,2.705805422471696,1.9472175844171609,1.9737026062299392,2.7154693915981545,1.8208819986746607
2,1,1.7384716477816184,1.997740699971937,2.1191175304398224,2.901972337603128,1.8028089438342445,2.0581010438679597,2.6139999058363528,1.6612933644003416
2,1,1.770263034613393,2.094113487990649,2.2336027975829804,2.754612219290561,1.757398234869834,2.0410790581149354,2.4724160619492364,1.7257711321738076
2,1,1.7778902393065705,2.0893853735808228,1.7845018580018397,2.4221462201398904,1.724271716926758,1.8500820180467705,2.652343373983804,1.6259821941122754
2,1,1.708539349268776,2.183713114469663,1.9774777841903022,2.5042040065458777,1.5728945582686835,1.7686843683202178,2.4444491808820175,1.5263708987223281
2,1,1.8840437413992634,1.9448195151302143,1.8793854904598069,2.4560110454191477,1.66328585234744,1.8391901355645999,2.485621396846325,1.5845269328783613
2,1,1.6714027565133505,1.946633555025811,1.6893372384061907,2.622982918445245,1.6956756449264418,1.8150781520095163,2.332616531889701,1.6526651782925812
2,1,1.825089757292166,2.1647611674909006,1.6266509000853036,2.777812064386916,1.6928733187235256,1.8216879187967594,2.1484223435701737,1.5883436174673773
2,1,1.6456489506986398,1.9526879941302482,1.6793882700309306,2.361407791774465,1.7045980617541663,2.081326321218873,2.3013112561090403,1.8005635014133654
2,1,1.8068541918085699,2.055436229679809,1.6387888451806651,2.341824344804508,1.88606017762216,2.124019311568897,2.4324662867695,1.561018228227235
2,1,1.870278425328195,2.1289958515425496,1.7795659997268933,2.5346230102087643,2.04818330602457,1.9018081651012668,2.634202284195429,1.4991803047339958
2,1,1.884359754890918,2.066101789145324,1.8905813802716953,2.3682271919268585,1.9739812534377374,1.7968633213447724,2.6174595552438458,1.509780405515797
2,1,1.8539448626997186,1.9301216081080523,1.6493937351305248,2.3654492789955897,1.930905728650409,1.9014969896330867,2.494591422476836,1.3702409436297711
2,1,1.8999745565841613,2.025992515663574,1.645769635555151,2.494917283155776,1.8649821719912887,1.8853529441095054,2.493944065359073,1.4837200603365726
2,1,1.984836035181783,2.23944365489675,1.711610715158985,2.8014096387177534,1.9596540272304297,1.8899917437591631,2.3312122519510616,1.45114572600687
2,1,1.8063145572173707,2.306395383838828,1.6956411728722018,2.765880530756828,2.006531825581532,1.83420524770967,2.487652108503,1.3718598989690631
2,1,1.8938259956792036,2.2916743667915016,1.5093757581717682,2.831708660671977,2.075236613944067,1.8839826749403257,2.6634596480967336,1.522400258835395
2,1,1.8769056907898627,2.046991163699357,1.4051230410223228,2.681008857597067,2.2193942310892876,1.728611245813857,2.6953621895648423,1.534172292089328
2,1,2.0818204054484744,2.1614231803317825,1.3377594039191532,2.816089625131998,2.287993846185738,1.4899701746149967,2.698447573194368,1.633478826761053
2,1,1.9023969801048888,2.147161202482695,1.394847835611983,2.984142960295284,2.4788163515477475,1.5890224574389378,2.353818699676218,1.4851534396088772
2,1,1.949538156208494,2.168803304444466,1.5458924508667962,3.261084727171988,2.3609816488168374,1.8267187601581918,2.2618459529775157,1.3765503435907709
2,1,1.879702199369808,2.1136182108158823,1.5781858246660294,3.3366666468378385,2.4185173959048303,1.916805966442354,2.333233257049388,1.544496058932693
2,1,2.013733460620519,2.0406469545057986,1.6537013378473675,3.467250278947612,2.1863684892626343,1.7607330055177193,2.3274770704298655,1.5670282446530885
2,1,2.063910445368348,1.930855907351718,1.6019126981769685,3.0447519752989556,2.24294247100159,1.8472115854095272,2.3519600273591923,1.3445308174899278
2,1,1.861429395719756,1.939623370532989,1.658972394785968,3.0796062340281796,2.18291573959486,1.9108425240070679,2.3366805155930477,1.339286522789147
2,1,1.9886030512011943,1.8902270779059513,1.5595085932550807,3.241324842111155,2.3544591392803906,1.9275505149254801,2.2243166706269593,1.32348265295954
2,1,1.7427673728039084,1.869330743017044,1.7729145175485825,3.5164923783312316,2.18731685861712,1.9075675187019314,2.2380327686490102,1.3053600518074349
2,1,1.7530961364960649,2.038304806566256,1.5916468456409953,3.579287655376038,2.0162324974770622,1.9269936408707304,1.968350498665916,1.1858974705329806
2,1,1.596257253606059,1.8275557675848457,1.5542809552065853,3.4604151957162825,2.1226319422949924,1.687579565451614,1.9333636146446689,1.1420572997103864
2,1,1.6466624112970352,1.9400426622579685,1.736343467322497,2.816433755412833,2.301828991108617,1.7625250241100285,2.0563248421860494,1.2894365627445128
2,1,1.5716399626008837,1.847339220957366,1.7035610828026113,3.157652408455993,2.421668234314272,1.7937676290444076,2.201573744152421,1.1766108456460491
2,1,1.65784874041664,1.781107689185878,1.6984353911906669,3.195619837963384,2.4842541342436215,1.7326560641553266,2.4024288866354007,1.1059499089855371
2,1,1.6428851603080437,1.8440796248939697,1.7245042560557229,3.104034703842443,2.4237488257950677,1.660698808025742,2.4208249209238044,1.038892367007833
2,1,1.5068625160932791,1.7649327445596605,1.784935009793616,3.2239211851198495,2.5555987846436943,1.559514791759261,2.4632220439515047,1.0762680220767666
2,1,1.6073753957880932,1.7835213288663236,1.8318957621422234,3.450118455440899,2.3625853425681327,1.4300335779042377,2.3077182519591632,1.2047792491761082
2,1,1.9000720242062565,1.8279916586335527,2.0050136982897464,3.0438326701124345,2.7216961214633777,1.4250426858918601,2.5321676876896206,1.1642552700370663
2,1,1.8031126758734213,1.96034797734796,2.1217680240069643,2.8219387067049406,2.7175919310704018,1.4591828790921932,2.4612803819690043,1.3313392138756146
2,1,1.6419378597867118,2.187555005858896,1.9376616814147267,2.814952344140081,2.8634332479627433,1.6338932551392855,2.7029543335846586,1.3527371116289388
2,1,1.6622758946856346,1.9044599183283213,2.024611667527139,2.715101369565889,2.513339717474748,1.7561596906921135,2.3757539634132114,1.3985024190510242
2,1,1.7160989839536687,2.0257345460203333,2.1990326036356596,3.065656130695829,2.191706044363827,1.7574701715398393,2.468025530993372,1.3961764567418804
2,1,1.6991106001120841,1.9070404346653043,2.2231437456736813,3.265211425893854,2.1865386208067927,1.5021698392712508,2.137199136488935,1.6087554212738673
2,1,1.6494403374540656,1.9543313858554916,2.60174820369943,2.8340365463663213,2.275061624129801,1.574168176463075,2.0201203403713848,1.461012278808156
2,1,1.6185319165285095,1.920191188169769,2.660401757056431,2.8009971728947742,2.3963036128636324,1.6132675448903842,2.234311251210364,1.4664083727648756
2,1,1.3944043328311815,2.0720945940628868,2.4220992056791757,2.784527139202645,2.3155597196261675,1.5508045241400172,2.268204719765284,1.3847094787178715
2,1,1.393225674650746,2.062386271386362,2.534370829111564,3.1722853407031923,2.498186662215756,1.523629783423379,2.5224629903107556,1.4150132163243032
2,1,1.7063224446048404,1.8386627425956197,2.391625950879181,3.296867573784423,2.6875314304247357,1.5233818388881921,2.915536996105153,1.5758289356687796
2,1,1.9166986588285728,1.8722634760362844,2.3790689105676126,2.934043552604408,2.648844635954946,1.6659141426206514,2.670245782566931,1.642583204935057
2,1,2.13064605352456,1.887726746131641,2.3596749353563498,3.1026518963698497,2.4420686640872407,1.6784783915470571,2.8002961973245855,1.7611802313441571
2,1,1.6784791177749603,1.6667088637341854,2.127053981128471,3.076972224704461,2.7250528809743884,1.7199447186566503,2.615400205102859,1.511283718570451
2,1,1.6173013790801223,1.7177326094689487,2.1118420476246187,3.180037628674522,2.8570881863876676,1.773374971776258,2.5791877009897326,1.570911952074347
2,1,1.6751120070626684,1.7642025389070572,2.0086167686650374,2.963039781226579,2.933019506416526,1.7039453592637555,2.5482347548195445,1.7216304454813167
2,1,1.6379851124060838,1.9041075762066813,1.905940069677947,3.464686740613449,2.716337502248383,1.7155077974567816,2.5400856572333956,1.8352788536830367
2,1,1.5917656331090329,1.7321941919715662,1.8696280801868137,2.973109492593929,2.7552573640463645,1.5762605698575247,2.760331192118456,1.8499328964580517
2,1,1.6787951499709743,1.8842729814870498,2.0334918189674007,2.930949919346452,2.550193344584715,1.6267992751112728,2.843779073424176,1.4797576498315013
2,1,1.8030990897792663,1.992127349849707,2.0944575679884627,2.942054515964961,2.599588920720844,1.8140595819823828,2.6633351407071184,1.5740935730008145
2,1,1.9965137888463893,2.050860336592856,1.768710407850162,3.3317907421366924,2.6453011007461265,1.5810889054095518,2.9346225257978555,1.5076729372098345
2,1,2.228850076647188,2.258729222991571,1.7405688185159294,2.8948181738047007,2.5464643550072754,1.6080036484002447,2.695416211713112,1.560385803306678
2,1,1.847628434918293,2.0546802218196567,1.9920434276207581,3.164422984630588,2.654895899083748,1.6199983335747543,2.9619114563949105,1.468067238487704
2,1,1.8692949718550327,2.2506851515788266,1.9715968727020068,3.454379842932663,2.666018897521752,1.685676824031171,2.917030490663836,1.4621268736638726
2,1,1.7685532621479467,2.328285910691897,2.2122291176118636,3.2608082186501735,2.3778811888023905,1.6627496673890936,3.0051639262282843,1.6439637672770246
2,1,1.879017342196807,2.581907073478789,1.87496944909984,2.8362408443838714,2.312116706540139,1.539761101124986,2.7007129159107506,1.629474039156445
2,1,2.001479141131328,2.8958929475424062,1.8182285510314504,3.075254471362667,2.302067941507593,1.5851880816183168,2.8956676205781884,1.432642228378207
2,1,1.780865873810871,2.6342631704643766,1.8949909864420755,3.2340815435409804,2.328615248210838,1.7332820782550646,2.355400732348832,1.5192123184060051
2,1,1.8242486079418359,2.602852152283819,1.9413798744044153,3.0763991477996604,2.559527975217014,1.8064338748660056,2.5596216644468632,1.6220123888440847
2,1,1.6987993906465704,2.4441900613402248,1.8674669604905851,3.145200461789556,2.5091651700012014,1.8811679621061388,3.0903579985972978,1.7702232439043775
2,1,1.6258152968109931,2.299197497642199,1.8056048462588534,3.1994888429327855,2.203732395896647,1.962497076743163,3.100952132080546,1.7568671825640898
2,1,1.4262292128351055,2.2190412078554482,1.8501432195418903,3.1797895196562385,2.0054521043765874,1.920516477909455,3.0161509319843085,1.932048132854248
2,1,1.5374720150474452,2.360786221018343,1.8426875013158344,2.8632288419256096,1.9308680866866303,2.1697866887516866,3.170141193395261,2.0079210309056923
2,1,1.5594095991933863,2.4327342396553275,1.9517498943700304,2.8605047571508435,1.9268880540173352,1.908150860630785,2.429665247493918,1.8579952348784587
2,1,1.4999020534554153,2.373635096386432,2.0096582164870935,3.19583868159875,2.044670269739074,1.9313608262731496,2.504416022550362,1.8792807196148835
2,1,1.4629543719454066,2.2257750799059592,2.0548617139070062,3.222857649028408,2.200765923003591,1.823057311480659,2.6138496341764776,2.0073808462037674
2,1,1.5592084421079293,1.882065145033967,2.2712781388218937,3.481656500879823,2.0865967411134183,1.81393631846863,2.846937145262946,2.1330216065541343
2,1,1.4096703951966838,1.75561141349308,2.1909700232503835,3.1855189843798493,2.27092144352856,1.8328165650925705,2.6032502359048624,2.142196709057772
2,1,1.3888332328221793,1.8573621869350574,2.1407797600409117,3.257966051558897,2.269152882610409,1.7584484362395876,2.67725397940195,1.9807553277215142
2,1,1.3939292337260027,1.9385789936061677,2.3350616964776343,2.8494182323268937,2.162238917593793,1.8925199792067253,2.6877140876241814,1.7903268837085047
2,1,1.4928058310750278,2.264161144152571,2.48606483656956,2.940209904267278,2.1553679504257537,2.0387068676784668,2.8323075089518155,1.8672943694539423
2,1,1.4875312491132615,2.009438760365559,2.4092130493357766,3.1548559496751256,2.3873147558528265,2.022944192630491,3.069471014769876,1.5886366205831313
2,1,1.4887392491780118,1.885220124121928,2.509302733162509,3.178647131007687,2.327829307004959,1.9092257202260892,2.9717069709228103,1.679834291662778
2,1,1.5519826105651735,1.8207833732042469,2.3702971874385192,2.9136676964564625,2.3467441479772013,1.9181824821146836,2.9268680794909567,1.613354617894851
2,1,1.7790297514727365,1.8438107458695945,2.3949824280528293,3.0058403459662,2.3448675830149828,1.7319851437406577,3.272877293488215,1.7516652901198269
2,1,1.4807639245155075,1.7607330290800047,2.533500826400482,3.3422135874360492,2.490138624231872,1.81239733254354,2.752899513540588,1.5993791982593701
2,1,1.59489921556025,1.72072959142967,2.2800049300930447,2.9188250780137834,2.5632110091452245,1.8688898374270797,3.0942381512000847,1.6020153522823268
2,1,1.695798877527352,1.6280257522532828,2.1301780718657866,2.794060063493541,2.770260725719898,1.6464329507710098,2.796088054073933,1.678757074795747
2,1,1.6738135237167977,1.7507949369474112,2.0858384794875073,2.9096118035981657,2.8902118544405866,1.5639477225480403,2.829538127568298,1.7565872141813608
2,1,1.5613110412916407,1.7777775303585066,2.2313806470532205,2.7947806310933077,3.106811548834858,1.7295776653372221,2.7541664526217593,1.8032543442976312
2,1,1.5149952674485299,1.8443569239930866,2.242770720126654,3.1474950126806145,2.6790091372311644,1.8766118714032065,2.909298555340235,1.8564380671315426
2,1,1.532355244642257,2.2003512580043014,2.0027099618187223,3.376878274106571,2.3562355696198365,1.4747340629884005,2.7627534021166316,1.8298232297644514
2,1,1.5542539208337853,2.1953208751361504,1.7350008336538074,3.2485378689808497,2.0621841834716994,1.7333882960464748,3.180178731815592,1.9872720202480867
2,1,1.69303541756804,2.196412739696549,1.7005749155287742,2.8150962425363475,2.0698381609872465,1.729318597855733,2.9386929567309186,2.048874634780066
2,1,1.7823228536781899,2.103706115124722,1.5375427159497543,2.784688117478283,2.0711619909874184,1.7553959893932718,3.0037975278249385,2.0351273122416305
2,1,1.798742366702777,1.945829132678163,1.6063443545392353,2.8410746720495688,2.1503693094776426,1.8108060194287703,3.086874690456738,2.09754405267955
2,1,1.721586875338101,2.1074807021796222,1.6521163293826158,2.61105650848144,2.2364701910264446,1.9250778437972458,2.82362786104052,1.917151376214714
2,1,1.61525721586917,1.8585883789611772,1.6680388578471421,2.645185978866047,2.327610395388722,1.986529709355056,2.6572589017707506,1.881820118496364
2,1,1.8405569293150579,1.9140924538598723,1.783610596805447,2.6425614518388256,2.540685356481762,1.9177741061101319,2.8219649595982164,1.8006991932549414
2,1,1.4248803005080721,2.147782536967285,1.9474161074196765,2.962483847010353,2.205160678685855,1.8523938854005508,2.565364371297403,1.7640332639286753
2,1,1.4124281420912843,1.905659796830109,1.9850428600884151,2.96640938558875,2.238148585405925,2.072895319627224,2.7845600698086037,1.8484389057187325
2,1,1.453730654688092,1.950674626729013,2.2243593801457857,3.256997117430454,2.1307744940425275,1.8333049503168621,2.6101943936506857,2.0299820441600445
2,1,1.531386229276421,1.900496654311326,2.246680568721778,3.1397459368116607,1.9795841058946395,1.7322055153446207,2.6087789421716345,1.7816448349809886
2,1,1.7643187694845481,1.8986682728352169,1.846619722123019,2.8200381605043643,2.225030872966172,1.8122977625369074,3.0188650800058516,1.9247189286125939
2,1,1.800552774973326,1.6246374899761145,1.7773215213142661,2.8023494803097257,2.123358195617918,1.7920914631144473,2.718056222644865,1.8109630776639392
2,1,1.9696601588622666,1.7302405845570406,1.9929391791916249,3.0891366793423702,2.0041908081920368,1.895482292151399,2.5858397833406324,1.7545403706123885
2,1,1.826771196860036,1.9258410916575863,2.2406562453486236,2.8918150754515284,1.9957421076512685,1.7265525247638933,2.299062969065524,1.7181685596067615
2,1,1.7001469610452504,1.9057383442419038,2.2061763815951037,2.6602689106707422,1.853914233463637,1.7361429120037055,2.250448264930659,1.4924224519298488
2,1,1.5888701293247154,1.7787920565570685,2.2504741725406983,2.6871526212008208,1.8138574579296547,1.565956932128248,2.2816121686709954,1.5976505437234438
2,1,1.7232246128063788,1.7683546198976228,2.153274211421411,2.960738233013746,1.9442962604739245,1.79246981455925,2.357531397635175,1.6782110481760941
2,1,1.7318070657892415,1.8321811993268682,1.9139280107882288,3.3246871902543065,1.9039857480902274,1.8068390254891011,2.464285796385022,1.7394731179059044
2,1,1.6274525507328688,1.8173964022287983,2.010754698000291,2.710778182893608,1.8526925604511393,1.5731226060832633,2.39445919026533,1.9042285949148512
2,1,1.7835144853426215,1.9014350082369003,2.0282002655745406,2.9579156358276855,1.887452241377802,1.6810606938905248,2.3117165722848805,1.7735873012603
2,2,1.6894056990140096,1.876292477032804,2.336992860099901,3.51123486329376,2.4031091073354958,1.7442613354076328,3.1531899339784895,1.8261372149964636
2,2,1.5339131644983324,1.7069981926932911,2.4758807647838044,3.5876430497073444,2.6696744021684937,1.7918658693056686,3.082175649608514,1.8927802283012958
2,2,1.55189185968453,1.9382719874684393,2.5529959689440207,3.184348230678464,2.6588124777993754,1.8294227997334285,2.849490253426237,1.683541602742711
2,2,1.4817194094902306,1.9557346694596731,2.4446260596152762,3.403861028179178,2.737839304948877,1.880060686045503,2.630868541335592,1.8318529919418898
2,2,1.4770311544453099,2.057104697371769,2.253220564889173,3.5648664169857867,3.0507377390144725,1.908280361423034,2.8676501159363434,1.7798653354644125
2,2,1.5843217719228526,2.192294883635932,2.464435401911101,3.657006870779206,3.022941917202798,1.7940660512961675,2.8059123735501252,2.009536855243976
2,2,1.5321122848356195,2.371264292846457,2.723158242289317,3.431380434672377,2.752292145163845,1.7318846243986552,2.8503777871378255,1.827620544465139
2,2,1.5432646187362316,2.4320351473046165,2.481490198410273,3.6575303631952956,2.4391006667624993,1.858232433457967,2.647574542067081,1.7433656324216373
2,2,1.609667516194594,2.1464093973174525,2.6432396553777933,3.3284455202141636,2.3072723092844223,1.8971820962492985,2.7773349926197675,1.5983064501231934
2,2,1.7361780708370684,2.035104674779597,2.6069298845578874,3.2551583472085177,2.3828115498118256,2.0781824609003343,2.7565433539691973,1.8181730454069123
2,2,1.804325728855274,2.0991971953990327,2.4293978815842214,3.287381411907862,2.6002736740191636,1.8581548794416234,2.7776056095920314,1.7270766488126776
2,2,1.402687485534052,2.183589121616845,2.469073614326174,3.1295685047886885,2.235649345791375,1.9421403495145575,2.710139584756452,1.7605073007640584
2,2,1.4634737662135826,2.1835465592400163,2.3351209796118377,3.3892002352844983,2.332283715765055,2.1471309204442144,2.564287196155287,1.5451668095748992
2,2,1.4484239522182492,2.0878734088886857,2.2696123747861696,3.4204140239316394,2.399389841353981,2.0444082871827356,2.6852406144431518,1.6542348653708643
2,2,1.4438021202608589,1.833748268949386,2.2976162835916205,3.1749621199124425,2.6305125955442805,2.0871312736332497,2.8873477810323847,1.6652673189614664
2,2,1.5872146388548258,1.9187070073839003,2.0843434784783312,3.302893476876065,2.7046186017376295,2.1565156756763364,2.8062671453219163,1.785357796327267
2,2,1.6238575289798654,2.101416163698082,1.6971181768124175,3.4187692256767774,2.7759178979765418,2.3767661211836817,3.111625569104023,1.7566856815528453
2,2,1.636153457312767,2.053753149660602,1.8460498208343412,3.6282880666671176,2.7573261554235957,2.034557680193073,3.2860923657169203,1.8073765764639838
2,2,1.4269762092826592,2.0556668014598594,1.8555741369204206,3.791355457696818,2.7934113907364955,1.878411113232427,3.194217095240261,1.956016853713237
2,2,1.632125720949366,2.2214376085832273,2.172022363911761,3.1992249878915735,2.9816732111664135,2.011028841394123,3.080777558952042,1.9335881886718942
2,2,1.6072867109116757,2.4330835928198185,2.026703146607924,3.4106578166895494,2.8107166491734232,2.157312107392974,2.723447856836725,1.659126320653686
2,2,1.676762074419735,2.08033098196961,2.045266323778802,3.914238429281523,2.587544508343747,2.300612428469377,2.6736626157299725,1.684078688091776
2,2,1.7362026793515282,2.0794749757478055,2.1331886935414657,3.527459550289297,2.385153902566253,2.180620188289146,2.6054162412052433,1.5281573964351973
2,2,1.592602647858867,1.8448716860570118,2.0821721280305594,3.6743979803836466,2.1263052147638346,2.252264885759572,2.483258894021836,1.626360241166676
2,2,1.6800661992404904,1.9739333978842108,2.177609463160474,3.2367227711391666,2.0733406611103224,1.8957223835220254,2.8328122528320585,1.5849889693817494
2,2,1.507054564215752,1.8953336257766276,2.3186445914361187,3.4186077926738903,2.0382337172543785,1.8420796340851429,2.552557687745088,1.5213880760220504
2,2,1.6330416108216503,1.7824184463409791,2.389603221378129,3.4120412022428286,2.281388902868752,2.035424322718154,2.3704331553957587,1.3616406154804757
2,2,1.6267146992580386,1.7914364668419518,2.391979984964943,3.245205587384807,2.471355958198009,1.7388422168761346,2.6091745359117753,1.2698182577769466
2,2,1.5836256331357101,2.1018639405174544,2.4552591079092267,3.329867761812531,2.584034472036277,1.8587382626447035,2.689714402500007,1.1755919456028983
2,2,1.557518565501702,1.8038710977898391,2.7260108211413105,3.061812187386245,2.3446152608719357,1.9320170757096906,2.520107028921212,1.2311765937678478
2,2,1.5453989520231841,1.6443311390739659,2.5387287484227494,2.8762779206139393,2.37048900241122,2.1149677375307867,2.5934373370408808,1.2870374814023684
2,2,1.666456906873841,1.8129626082352164,2.21671030257806,3.159145240851879,2.484019774352759,1.7595650069415696,2.5087857007884478,1.2660799600911958
2,2,1.8052232795025842,1.4661448629737184,2.5277518137750747,3.406237954633709,2.2240647073094584,1.8889883864616714,2.0900998438625753,1.4787851319984275
2,2,1.8123956709724247,1.4363808191300964,2.559027319331057,3.2702902689857645,1.961233427991097,1.8137788285412044,2.4411456802715037,1.1620753737111087
2,2,1.8577047923340222,1.6157425688563714,2.7450760780599657,3.4250111507858705,2.0709118409095995,2.060998306004364,2.2307928039200036,1.2926135435842256
2,2,1.9957416859695434,1.85837068607292,2.4175109055175144,3.229867917906543,1.808577379530863,2.2522272528274967,2.3470475589392703,1.4960320850776805
2,2,2.020978104335285,1.9084746675779232,2.505848657550734,3.668200688869193,1.9636516335312064,1.872018196691745,2.645843566674586,1.4642651437198015
2,2,2.0017851596921425,1.9915813055492957,2.7464142837871233,3.739988474672448,1.9854207973850355,2.099638768719565,2.6223431454249355,1.4966933239821043
2,2,2.213032663978777,2.196071673356928,2.9286950450012794,3.7606892565755583,2.0069747741399953,1.9432702810283091,2.9855990324150947,1.550547777223655
2,2,2.4154525749927247,2.1396087664284855,2.8327313066911186,3.6468696107538103,1.7941559211240794,1.951549776206555,3.0998555653657975,1.6379177393878726
2,2,1.8665137498377558,2.0906092008785486,2.9685546193640513,3.8562259088487183,1.6521388568539905,2.0599542445508634,3.3868364587288307,1.6016285628701816
2,2,1.8248691743402379,2.1563213681222875,3.4401712853791824,3.9736441260875504,1.8546978858634224,1.8843458279376712,3.352436386733194,1.8163665692014395
2,2,1.6620637579893305,2.1313946860100197,2.826768957431088,3.74472729515119,1.9389718255266295,1.7357466355636213,2.788119640750288,1.8371886215966369
2,2,1.7650298727803408,2.17614913398374,2.663768116480437,4.0588352722739565,1.6944444280135775,1.8603496421751071,2.557822002220373,1.59344112339362
2,2,1.9155006464961628,2.065398594081538,2.703211721525399,4.275740011831324,1.9153460076598154,1.9038967444898733,2.416109308125299,1.5211278024120503
2,2,1.925522492867354,1.9035472076378641,2.792761496914258,4.629281390649927,1.9004489063649939,1.6213816091516116,2.389150165918534,1.6681009841720047
2,2,1.916215766195052,1.7941134374208056,2.4614850073831915,4.462136303834738,2.026326844302205,1.5577627189657233,2.6208788490653294,1.6855880499459588
2,2,2.1252097113218142,1.8557210951042389,2.5408922407865995,4.540177205039267,2.0280832109789277,1.6968927079240015,2.7143030799853722,1.5092053133463972
2,2,1.9902822116243608,1.6750923270105187,2.965491347722838,4.5274955977944105,2.3714156571798526,1.95194185681924,2.739618271303255,1.6805047196857497
2,2,2.1117047917786995,1.6950007464865802,2.65587157666861,4.189246641917035,2.235165677669067,1.612489301094325,2.5724378840261997,1.7945710153369212
2,2,1.9707616831939203,1.8343786346727335,2.7640567652673727,4.198028585811603,2.120241491518374,1.4015374174636237,2.536623569650142,1.7793602395704322
2,2,2.110707418121537,2.1046675733945084,2.750153023045492,4.639291057574221,2.2942301234069182,1.4657085860671815,2.554544513167805,1.8642238240940325
2,2,2.0217042248979937,2.124953049969139,2.9941195227978534,5.307151136911088,2.323775644361671,1.4388310266404327,2.46057291353175,1.7283843245892305
2,2,2.112905415369938,2.1876236384525867,3.193622250194885,4.865325298929828,2.4488995510594065,1.529526006645381,2.552519774542049,1.8459810124825415
2,2,2.2106046375035873,2.3813061253042753,3.230526446333519,4.568535220376774,2.7205619009295727,1.6228430995000527,2.7432858343592392,1.7150063513631044
2,2,2.3331001537119564,2.2477280206600327,3.159307369062321,3.865545301100879,2.380539848743002,1.6890798827856188,2.8814848128785018,1.6772937963490282
2,2,2.343069591209661,2.3971510942180676,3.0780579381368574,3.8212200896218356,2.3439180080174915,1.85906737807466,3.221867834075277,1.6804754046652595
2,2,2.2472281395912073,1.7250777819215635,3.452036278997294,4.185566766301752,2.7072899745308066,1.8479664212374993,2.961039399956111,1.6712267343000382
2,2,2.2995382144193037,1.6104065144054487,3.0562916400605196,4.206018516416114,2.5294891212104433,1.9749924543528465,3.0153917483463295,1.788977859837799
2,2,2.4002179186039423,1.775837657543303,3.0017639948998815,3.7870625959971376,2.6084300329041414,2.1078728961332254,3.284758967282225,1.7436231293355604
2,2,2.3421670957650256,1.899788613300358,3.1398081242634612,3.50917186977372,2.4157347746826336,2.269325946888484,3.2584717115653357,1.7710069139942588
2,2,2.5184743582732465,1.957180260395156,2.9933188506749406,3.8380215488940785,2.1690729745620567,1.9182340510838345,2.734584297730115,1.9450463050595281
2,2,2.346811098214359,1.946937211683584,3.298499191394785,3.985807773429937,2.2422289477965647,1.7284890623852016,2.3797304788526006,1.9847009835886789
2,2,2.479520114044165,2.1412142273760373,2.8783806225653836,3.663927467606845,2.1771780836451167,1.7686204002885377,2.4441984011835456,1.747341509059626
2,2,2.3023060533406126,2.1842068691250365,3.2359620821718393,3.5587537017455477,2.312576373092462,1.5941195721109112,2.624426359366537,1.7449983668922349
2,2,2.117669739576079,1.9678318734552005,2.707767561577426,3.7097083738958023,2.218497972106432,1.7419320264698288,3.0536184462071065,1.8545637762693739
2,2,2.3019163263062996,2.010741544844017,2.690335567227496,3.8679960199683987,2.0727208675376696,1.783335317422555,2.8150936119529537,1.792012667909212
2,2,2.2294538313407726,2.0635839166172123,2.797204711264272,4.141717302831575,2.210797390703572,1.7536665884559268,2.782854505367523,1.7549095524847373
2,2,2.578656529023983,1.8682922893051312,3.0745854635013004,3.8352266497935883,2.361232096318144,1.9666599096330561,2.9880413236376406,1.7452422280870603
2,2,2.5000142191674235,2.0499862332299883,2.7314369286575038,3.788717583399633,2.6285716380997024,2.033554016298351,3.198866956613593,1.8522061178818285
2,2,2.2700486121411574,1.745656853906604,2.181876732052972,3.8880086031555403,2.4679545766674775,1.8672791240051119,2.9847181971544607,1.6727234794886103
2,2,2.097273489868049,1.785982199107129,2.228304968797661,3.6969105886086218,2.2376811107551524,1.8645732007582574,2.7797548040791598,1.7201263590565254
2,2,1.857688911403967,1.7322004843903225,2.0653239795272826,3.615796370799242,2.0775755068148016,1.6857395660387848,2.2499345798537997,1.623199266278969
2,2,2.0021388391668093,1.9098609634804027,1.9973820172744177,4.006654875491338,2.0858431785083233,1.7415300957410391,2.180948122239343,1.7022905572395965
2,2,1.9606899465750287,1.8696432077220806,2.1080588828494635,3.5220401769716094,2.3087892770944944,1.63904675815728,2.1110532327922567,1.564172253458448
2,2,2.0334434153703085,2.0056951422607567,1.913760364952332,3.739839571439105,2.0083637984788205,1.5220483739598916,2.16548599850316,1.5873021612537137
2,2,2.150231903082784,1.880128155297445,1.9404467850308844,3.5615819885969895,1.9533420643462798,1.5253527534463591,2.303255679050699,1.4555107148641024
2,2,1.997382931432242,1.925853778420783,2.0019671310399088,3.293509038800256,1.9875261850003,1.5916136652726425,2.312237767507379,1.5750081585641553
2,2,2.003802505207014,1.9616093402798362,2.0485975155913083,2.7560744618186614,2.0860489760350234,1.6800982573929208,2.492373910577353,1.5063889541310538
2,2,1.9987610514912997,2.0003736516307735,1.9984841168300398,2.8780537761944487,2.301419114925089,1.7086735744420263,2.5583006131446635,1.4851483935818914
2,2,1.901014857507284,1.9758978829095075,2.0196850119317507,2.8362518320876062,2.3155033997415564,1.6994609794713156,2.583674470822709,1.5470038938731026
2,2,1.8819382836871916,1.7631400130893435,2.007261303623493,3.0601451943022884,2.1454847612842354,1.6983457418626002,2.8440725116075805,1.6511801308628964
2,2,2.064013425498043,1.922723537735765,1.9544149519880345,2.8348798379631766,2.187349078695725,1.5328474105691012,3.1840585126491874,1.753287992743117
2,2,2.191495279513339,1.9776667020403498,2.0413055753366662,3.0624930396196772,2.2558128986246375,1.6633450280169164,2.634100610594615,1.833201938715117
2,2,1.9160417902660127,2.151797570741799,1.6148863091150236,2.712672026142278,2.4936475079664926,1.4782201310119716,2.7981279959796304,1.5817553057010816
2,2,1.9549636662222618,2.2244250744145946,1.8117967488042261,2.95442613850204,2.4816359566890007,1.6421734403278614,2.647784680110997,1.6816901491638752
2,2,2.1290419618087673,2.184204429426663,1.8364942131792856,2.6174650219096884,2.395695389932661,1.7306480718958908,2.8864571131316334,1.7897960537765691
2,2,2.1070218668229357,2.1766434347573185,1.6802188642287545,2.6790602323182844,2.296714244798332,1.7489021517088206,2.978638679819879,1.58558894212351
2,2,2.008046983715608,2.104141775802389,1.8330021831009446,2.7809197927885156,2.2712888430574303,1.8471060584658532,2.9510826447685417,1.6546873663502921
2,2,2.062679204487443,2.078607378577815,1.9656017098627305,2.857087865301962,2.2522310530715286,1.7630737071431675,3.1384023767069094,1.804770928832799
2,2,2.0004360612486027,2.0753304355855744,1.8195117165313934,2.9538281979397145,2.354483461665205,1.7497984945286746,3.0634481346792586,1.6546712677589097
2,2,1.9469332390795973,2.016777878879843,1.854997721870587,3.2881628231530917,2.5009434466016836,1.7457121436824692,3.027180455344317,1.5622476637110227
2,2,2.0560528532278446,1.9552009017794727,2.004662158699798,3.0429548244336124,2.5004720718900892,1.8572897119605325,2.8042438960065885,1.5836335107976816
2,2,2.0343621918440333,1.9030372589312394,2.0859658480021266,3.05313279983581,2.1830802839001344,2.0374248407696505,3.0863855799835043,1.4169722521135966
2,2,2.167257735937,2.1520020595061182,2.156729887667391,3.2665360245273183,2.2210058005275775,2.0895302154123305,2.8741734443505575,1.486838762521882
2,2,1.9727776696179866,1.9568169127194959,2.2793753937202466,3.427806316415479,2.1007236545130636,1.8015178768089708,3.182075975901388,1.4509798958031281
2,2,1.976843284921499,2.1670748018040817,2.198103458218989,3.491778438846729,1.9083810850512921,1.8880924910047436,2.868746393759473,1.540127658697622
2,2,1.9824382236733424,1.949858673526097,2.3204723657883783,3.6509928470257527,1.954567819636172,2.132628052225672,2.7818366696087913,1.5125428339186082
2,2,2.025206142816652,2.0085279728896337,2.2330898314243317,3.6537226597759376,2.08935798631351,2.1437722419876626,2.7474857807798196,1.488995623804716
2,2,1.9386351744072756,2.058625516650498,2.120303772194623,3.701552651878969,2.210222159445994,1.773705078861911,2.707659822804898,1.378001958197375
2,2,1.782480658482687,1.9874193424891415,2.04498091024698,3.451610128336051,2.2449466918953673,1.8369169107731989,2.7862604627937606,1.393879071954307
2,2,1.731680629356808,2.0838962025475993,2.0949266824576505,3.780677259843226,2.3914960535427303,1.9854568658809293,3.0149495397090207,1.2625010476599379
2,2,1.825682382007616,2.2954093206972486,1.9877504940314785,3.6504074099757515,2.3720965497595587,1.9747295610271327,3.1183982823656526,1.2996110702608032
2,2,2.137002061650735,2.1981170697957646,1.9355709252461952,3.2006869280490338,2.3031376027714834,1.9514487855529283,3.3511470054425936,1.2343161877555733
2,2,1.9840039116480612,1.9574169659747969,1.7701713093165519,3.388737440368338,2.433550579204879,1.7259176167629233,3.2205671080798126,1.3064260471658669
2,2,1.7227227857269272,1.9562290421716113,1.8592343600674823,3.6314227777023604,2.4174602820365916,1.7767238784213515,3.5880245453983997,1.5289628032171156
2,2,1.7026301789937084,2.1440937970934963,1.7652654344276186,3.408950174036258,2.2655858420638575,1.8638431240443505,3.2561287897820907,1.47062682851103
2,2,1.5594761202633671,2.247426888294919,1.7832032678527834,3.277337741709779,2.145664124627192,1.8497248935771016,3.068169560879799,1.493009754296642
2,2,1.573406281590353,2.3766370653122584,1.9555521725515568,3.0769070643328433,2.278042471573675,1.8250279625295043,3.0073737559373153,1.5701456972655452
2,2,1.655163052783426,2.1140751157269904,1.9733595760935272,3.0950056452043255,2.5748667111188652,1.5924636189586348,2.751386295451184,1.609381536634657
2,2,1.5988237405056145,1.9655158915887818,1.980521040257944,3.3077540176248377,2.4675010671549247,1.5112993119499532,2.8800285181733383,1.5800897524009487
2,2,1.7498833473512834,1.941240843808902,1.8097840314920202,3.3379785936855835,2.632179645420866,1.4895276330796148,3.0322657340865566,1.6686909021405678
2,2,1.8321783433983387,2.057168593299833,1.9159202996308773,3.3359348529088586,2.352087662576213,1.5332721040461499,2.709656263168875,1.6088400590491438
2,2,1.9835492974338578,2.2064103524343293,1.9432148783599081,2.9986619276264506,2.5567806820163774,1.7755007232049143,2.789306442246635,1.6178933450505129
2,2,1.793161766515262,2.3339180206567876,2.0764212195551592,3.2292871589548735,2.5499917095696514,1.6032160100713406,2.788541569451659,1.6426420447001362
2,2,1.634957669672352,2.188265054727007,2.15225794565764,3.31353436967267,2.49595058890151,1.4869891496810803,2.7049611398939923,1.6100299799033637
2,2,1.803690702929884,2.1771888958676735,2.1099697676226996,3.6219406239435683,2.467824461533933,1.4608924297612311,2.3820885633381597,1.6264543685623132
2,2,1.8274772252333589,2.114312129229446,2.2105692806996475,3.1234694137192096,2.169057548839442,1.4651443382874214,2.4874697444379383,1.5435222409626483
2,2,1.758975416955534,2.316899239756894,2.1810009601309575,3.2238781748209178,2.1673544179702433,1.546415800226683,2.3832883653558503,1.6575404271744272
2,2,1.9226527460350809,1.9116002719410634,2.248137884088226,3.3282719959842653,2.2891043509368396,1.6253706495440945,2.607185331092802,1.6184787472617241
2,2,1.7106252352147258,2.1013605445871226,2.253082834290847,3.39949568961775,2.2165692818215788,1.5761980458433267,2.6403665112336543,1.7052014912674867
2,2,1.738683884197197,2.133246748096756,2.4937966126242976,3.6446299854012465,2.2687661467201097,1.7582411455933353,2.4988047801075046,1.711895269821467
2,2,1.6862184502289264,2.2795631990476224,2.495623485078211,2.833592670356129,2.3399692175543736,1.6838835554899503,2.556123841596815,1.8408926055526051
2,2,1.395125552935645,2.0573120592998264,2.519325535221338,3.0421846217403483,2.54137118662445,1.6895900536904291,2.478498882534391,1.8406011202091215
2,2,1.51893944019359,2.123300653926958,2.7903595077676386,3.031856326267122,2.4991149933914594,1.6320342518917919,2.428405888004027,1.71384209695625
2,2,1.477752777672154,2.1641270821202148,2.55945090430043,3.114071717250303,2.5578649271555594,1.4186618691517172,2.3870718177575316,1.7188557779557652
2,2,1.417593129844183,2.022940533693373,2.5061561903409677,3.28043879002242,2.253627787042169,1.4664742653424423,2.325445814179885,1.5934508130583147
2,2,1.4286297165495156,2.1973707617099616,2.736985511862531,3.3597220714249807,2.026028844588765,1.5853926877452809,2.4856439532951966,1.5487471713698975
2,2,1.5467812122056617,2.2397360896616667,2.7373447727824365,3.6575728227586337,2.0133681888737796,1.6904659456111286,2.7611562974687747,1.4493144447134259
2,2,1.3620567353141806,1.9751651474323817,2.2432357799201204,3.946555060895148,2.1954940441750943,1.802120127902136,2.715770486834095,1.3754489296645205
2,2,1.2828113624685435,1.7195784457475145,1.9572315768600494,3.726098679307303,2.1549600893444825,2.050759639786104,2.563847245103774,1.5292578104357926
2,2,1.3741885048637097,1.7874284607269064,1.9859870912598756,3.5652887707823866,2.2161681090497716,2.037808840180568,2.5349496059743104,1.6627569840574827
2,2,1.443087666662565,1.7076963911003116,2.075298116090528,3.8457529576190943,2.2195847906775477,2.1094710111595596,2.5948119192990178,1.6205925048368488
3,0,2.2189551715599842,2.707831271798467,4.042466240678644,8.877048202208439,6.084333560702087,2.654711297470652,4.28944406246401,1.5962455462313407
3,0,2.257804801475073,2.7163567917425677,4.212124480863578,8.730817206596905,5.2652178071010525,2.6214625160047222,4.568896017158217,1.7412539916721963
3,0,2.384584760791185,2.9564672881297844,4.0508914679069115,8.77307713679574,5.372962995228018,2.6357531457896357,4.930786611149334,1.6845559833054193
3,0,2.298151514206263,2.81472569532553,4.280526732315927,8.10953244479425,4.5415758862017945,2.657004207753825,4.667090940828029,1.5770352023482785
3,0,2.568491150632784,2.5752070744047675,3.9351614924887692,8.24720205542448,4.971341328317623,2.7375680551683113,4.801809824980193,1.6111988101290073
3,0,2.412676440950326,2.5817640761109675,4.158136027697681,7.929294894213151,5.536250564143398,2.8963283019308657,4.565523329266434,1.48745311767787
3,0,2.52980284374966,2.7165303680018855,4.307094691639786,8.166837835518086,4.882166383055049,3.116135804874328,4.917710791126888,1.5812833405584104
3,0,2.6427779518543524,2.7389045556490217,4.213676979501372,8.877342740631505,4.807115968648865,2.85715775261795,4.947273920116583,1.7447911190177843
3,0,2.7959228943422607,2.7347258386487345,4.5619692802891585,9.126383560874952,5.331092073027538,3.1236867372056434,4.882379356865602,1.6781847197859638
3,0,2.2786474724725108,2.7683795366823736,4.52862525385948,9.593258354126455,5.765111306538362,3.0122411729339555,4.42975831667051,1.5800192403889444
3,0,2.435614956743457,2.957461291422306,4.973087937274216,10.808006245930475,6.373022624887458,2.837358909114906,3.8959743312955117,1.6383634191333378
3,0,2.417397713940508,2.9615242215794635,4.836698158660094,9.996559655795519,5.759407349174484,2.4801495681111296,3.927558512481806,1.6504604568644987
3,0,2.3837918257505586,3.050417890708264,5.0206234264232386,10.104010552993193,5.881279309492529,2.6302545465593434,4.256237770471438,1.7793564500052115
3,0,2.2778374898932507,3.185907235187307,4.811264894272228,9.772975188004782,6.607038402851336,2.8611080055888833,3.8791857178611453,1.8370917769100865
3,0,2.3031852604156686,3.1344064915497167,4.569569325092736,9.86901674185954,5.808975339829311,3.07757573068203,4.291178126376913,1.7332473143282374
3,0,2.410412158191559,2.800809416173869,4.6657187054602725,10.496047854002994,5.813122694451643,3.409244676642276,4.6065300162556895,1.5554242817852237
3,0,2.307399201741558,3.1939881838678916,5.208093080699462,10.348564819152532,5.747551620493212,3.4353029581677985,4.069322821769288,1.5619982915662296
3,0,2.213178921441098,3.5414436691492,5.500512295845474,10.335167857815213,5.816144019260109,3.3684412030588313,4.114398667045768,1.5730668629662021
3,0,2.4172299530315193,3.233304075927577,5.3958972558489515,10.570049190306225,5.79384089129902,3.514573384124094,4.466236862361481,1.6410484819783508
3,0,2.7302465812843217,3.4692784595549804,6.104600914897084,10.21431007124089,5.51908927569768,3.7704292463870037,4.828305526044277,1.622990747236794
3,0,2.2736890420097264,3.18216947271996,5.690353333232933,10.9271692836413,5.262065258408272,3.221797618892419,4.600171596244948,1.699844411374738
3,0,2.5141628456168985,3.5981611951191406,6.261882898510328,12.145993990825797,5.520650920542723,3.4067080807659567,4.999653289361408,1.8982454936169748
3,0,2.6142064330688,3.444002898413153,5.729438006556146,10.116012557541344,5.54984556376135,3.7390080359621605,5.312819451369712,1.8830692117873213
3,0,2.3972588217871387,3.316002559949576,5.331289660082877,10.377101599097701,6.29672664104945,3.876040492161293,5.443274189432314,1.7909321210438887
3,0,2.497949996382378,3.173833546407336,5.487185345991677,11.396638703259207,5.462996778195196,3.5432348032783754,5.619070472638736,1.8996663198535337
3,0,2.3496991851613727,2.973429906657866,5.014785623046495,10.678160069733792,5.621284069477295,3.2990470482312295,4.739168894384533,2.05278114941231
3,0,2.5599702838057206,2.803545390449318,4.873984125989195,9.900434440154791,5.604477362434588,3.2606878968400967,4.480589349109453,2.0767625013830195
3,0,2.5867965449576418,2.6997976150793206,4.851676013643946,10.282349845649208,5.745367684559073,3.205094462788569,4.688434320666404,2.006692251305941
3,0,2.819755243104007,2.728715741399335,4.585121337882276,11.153153153620556,5.719960457248993,3.303843575555582,4.845730674110562,1.8953965463824132
3,0,2.7754608949551915,3.086344478107722,4.278220206478957,10.284860227325723,5.193153925932812,3.176603406197839,4.69606227914327,2.127739946928814
3,0,2.680840816434499,3.476430742013786,5.242633519010358,9.53896067467272,5.725409922323778,2.736639271519497,4.868326851118465,1.7656943929821955
3,0,2.7274707530649898,3.5445565162929173,5.270188378291288,9.521884148764682,6.039906850492733,2.9115110755515152,5.244737130276327,1.9569378281621765
3,0,2.5927800273091277,2.766918773470928,4.359392734755708,8.900142655418804,5.34758114053357,2.705980158013113,4.614262359595119,1.8702364468911823
3,0,2.3269541738007358,2.8240541184157317,4.927318176015463,8.745713215042471,5.544714668229395,2.514702167591507,4.121207492761094,1.8554351394086361
3,0,2.607850782541006,3.211320265352986,5.172012028800978,9.681694982772143,5.453730107228822,2.336519395296424,4.197049627665831,1.6087070748336467
3,0,2.0880753293491305,2.6152556705687973,4.595508647528425,10.232987565700505,5.161081619923823,2.468272805904437,3.724969329677222,1.8864735810250044
3,0,2.1680934191082084,2.492214623449617,4.627319797399834,11.418235278878198,5.542855922437247,2.519016856426157,3.9751422368242872,1.9446073606974623
3,0,2.2466567538676427,2.6511748642771034,4.6662680945030734,11.273881094801471,5.426734968804374,2.6356649032864086,3.9926721045557563,1.910728111477563
3,0,2.422068033528196,2.724433340422035,4.971876833155982,11.179574715343886,5.672326175404128,2.5860869891446643,3.9926416977260524,1.9578167355097242
3,0,2.630273074796043,2.6493689993992096,4.835618642236871,11.1355605095071,6.013374170821312,2.609296159829798,4.518266851722164,1.98851916269664
3,0,2.4908206688849925,2.66029917349973,5.200702366511909,9.59145478149193,6.014972895724584,2.7839895087977773,4.141547353234145,1.8102733955734664
3,0,2.562728221098654,2.7227871774098724,5.8233815035794585,9.829933007573912,5.985226287819133,2.5685651367382194,4.245613284476652,1.7922190363809298
3,0,2.7200009663294296,2.410681016551794,4.694943645292472,8.974554062525714,6.219313100787453,2.8651844621996827,4.461902456628709,1.8214168503079913
3,0,2.7102504808887873,2.4482020156342954,4.787283720613575,9.03218252405491,6.189093724851332,2.920459923011818,4.180651236916362,1.9716488450715874
3,0,2.7239797425128156,2.5052512051377573,4.2715685373286165,9.166140960172662,6.2045414501503755,2.8589669045729686,4.250580273357425,1.8696026086544295
3,0,2.852049157675132,2.613872273813615,4.782827522488907,9.489369523930955,6.139284749889948,3.274509160548082,4.285257060017643,1.9770278700535713
3,0,2.6704524458234156,2.641416892683187,4.4772020832411314,10.155650096192318,6.659653931291102,3.1247709796026353,4.186098272139833,1.3979018779859718
3,0,2.802095856281007,3.010789112345877,4.978302589216159,8.441652562786677,6.351574932299768,3.2797259059024766,4.657271557396716,1.538545334174995
3,0,3.0956807994956796,3.162910130928355,5.2848546987269165,9.369367911143886,6.09263876979849,3.473582201016554,5.062987881199989,1.5901561848301804
3,0,2.9572047241476387,3.0982288010824863,5.470800463451187,10.402350338336822,6.271201576370985,3.050134741421104,5.0930872759452885,1.775787394299671
3,0,2.6669918087897018,3.4727746293550354,5.64866382832189,9.507304861991404,6.557295531500291,3.169248117180401,5.0623843384136045,1.7670327850563967
3,0,2.475198580452171,3.2260123710801016,5.521345913925013,8.93428659377387,7.2477818041834015,3.4038647363324297,4.5837521451188605,1.6347633088535758
3,0,1.988940258984014,2.9776493761374656,4.791223277284902,8.079626177749306,6.8966460593760575,3.048930123684105,4.677876393475562,1.6214502634224282
3,0,2.0424750216712932,3.0615535418146225,5.276812247219364,8.033781301546384,6.276844280499891,3.1707877331202354,5.0071870332891635,1.5587125364326977
3,0,1.924239670833733,3.005055413248156,5.675680195513697,8.794917882836831,6.1177407606163134,2.9726438081923274,4.228980590816628,1.5848565094730005
3,0,2.035685224682305,3.13736508531581,5.855293276291657,7.939285594400591,5.442189784149249,2.924797831189459,4.354056308734803,1.558494547571096
3,0,2.118416923166583,3.33515803548569,6.769573449020868,8.758805351050205,5.811607863136956,3.016876075341604,4.397418208236817,1.5471773433277378
3,0,2.1416914117494685,2.8033975586580744,6.214569312072047,9.37452695000495,4.839096013177841,3.048394188050727,4.636769416183489,1.668523146986815
3,0,2.4242585044923572,3.1073946518037396,6.762641770859804,8.397547535697063,5.302772914245584,2.7810318334459243,4.326646761111235,1.5951857630917572
3,0,2.3987658154383302,2.9979500462390454,6.884761834887382,9.311297094988792,4.801182577137595,3.238751989416435,5.012933514666721,1.47588637055568
3,0,2.247025162280642,3.036729779509565,5.990744385470658,9.739909241805384,4.499833451661457,2.7812643420295573,5.346373104714879,1.6346413236510684
3,0,2.592077784817509,3.3154668879304157,5.688124361698673,10.644613012730979,4.865488571643452,3.14250339047073,5.236326551669582,1.7691957249193224
3,0,2.7037416251676434,3.223921852673413,6.083332387090756,11.078773603321643,4.595814162865655,2.6045588048737534,4.787886975070648,1.6661712874673484
3,0,3.061876857370139,3.534555780290213,6.484356941667162,10.060685516941223,4.6687782881784585,2.699123447396503,4.978228921516147,1.780982564750515
3,0,2.6829300732711143,3.1747509254395556,5.679930830879779,10.721902673297118,4.745266037792005,2.727012039941749,5.224864440719829,1.5230972276860024
3,0,2.5083696834159954,2.724255329069322,5.455816193609168,12.066454825855152,4.766719545643912,2.500151638519049,4.358188405543368,1.8062888403132047
3,0,2.693339201995668,2.6931521086404744,5.353375301581919,11.593252064059078,5.172982050803795,2.453464996411624,4.970703768237189,1.8497840077617802
3,0,2.502067803819851,2.685852630071243,4.841558122635994,11.086865008926262,4.790209326561,2.700038795456216,4.949306291908158,1.675735129784042
3,0,2.176844391612376,2.5235334597167833,4.8676907258460576,11.072223302749885,5.2705396215207125,2.593524726353848,4.205362260392414,1.768494806385573
3,0,2.2067889303508803,2.7456757747415685,5.363180359353815,12.069630048160077,6.189650934847742,2.4528287798423754,4.213035077025239,1.834875603409961
3,0,2.340235943816764,2.8576704658260668,5.858929031472387,13.342356579991769,5.739938119064451,2.5679522723124255,3.9583511355233747,1.6749609427252636
3,0,2.658632794831996,2.639109820513535,5.456911643191007,12.046428276237416,6.046387430446904,2.6412405427335646,4.334995149911131,1.4150868472147409
3,0,2.7810619165322854,2.6734285581127613,5.128535618306048,10.62864410925548,6.548557076821324,2.71707242078944,4.121568794517522,1.4969475699980583
3,0,2.920614305357394,2.712096473696714,4.82150867721862,11.243904496998773,7.043151436326117,2.9288617023967762,4.213335509905265,1.5304971074785108
3,0,2.7815562230223323,2.128278839144364,4.7173674576723315,9.751271578876961,6.276575698535913,2.576800006490128,4.357873059131009,1.826335902355773
3,0,3.147766268271557,2.2899309148609386,4.83292883077403,10.217678016442406,5.855282763923956,2.6596772162879945,4.809340596312407,1.9064642604743418
3,0,2.5859534820741374,2.5771423356999428,4.13971456458908,10.861025395008454,6.251352644569538,2.459934301219979,4.643074786047096,1.8239663681905394
3,0,2.724457028754614,2.461608999209993,4.485186495145872,11.544948086110685,6.255635325107088,2.36778939228894,4.520287415972271,1.6168017040768916
3,0,2.486050101902108,2.478155917720599,4.0130923392467635,8.892315775292662,4.9911278159835115,2.3860881562592424,4.019539030785055,1.810376426155189
3,0,2.8835493133243943,2.691053758389495,4.063809366898384,9.229597909712378,5.5704402141489755,2.5528238810939388,4.291906584476964,1.9610137675660921
3,0,3.0716606658505343,3.1499240767480647,4.544915641569532,8.272527457293226,5.410106757560838,2.846573820470911,4.6342163096975435,1.873149657365634
3,0,2.8988708549171998,2.5328980500507075,4.2109262319816505,9.249364219334748,6.453727794287027,2.859762556834428,4.5013042890432855,1.5735225870260179
3,0,2.4011579545478043,2.678987966017715,5.450047897835257,12.632710944991977,6.036373315995721,3.3021618310745637,4.51580102711887,1.937930048746726
3,0,2.441289980675821,2.854665185806086,4.6984953427202765,11.348297128798713,5.456658781261599,3.4323217441420772,4.881415689396135,2.120645106749782
3,0,2.695044910954503,3.041607627343716,3.8236217809355066,7.941945532640245,6.540749987856277,3.3265432672988804,5.0352747078365905,2.212084996931706
3,0,1.731962124956574,3.0336238710758416,4.064737633065934,8.354582316649084,5.104935903389694,2.6479889616735637,3.9788468531002796,2.200879437477706
3,0,1.852773827211665,3.2338494585257433,3.6625268748284974,7.003130646028844,5.619550363010421,2.967935982245253,4.420050058235977,2.074424817061752
3,0,2.056747221019127,3.440441833554894,3.78552753120701,6.652423946722085,4.908504601497463,3.428268751638464,4.221394255451282,2.0521903472148475
3,0,2.2069076347292285,3.4019519383028913,3.83521374265776,6.963146700951906,4.43002498271166,2.97889897957128,4.191736637079974,2.1221623098322504
3,0,2.3396300130366665,3.190754233461794,4.36074978653395,7.322297945620217,4.726811694838672,3.0801787455512883,4.6559239751053765,1.9998697440747255
3,0,2.3817229413259864,3.4349085810314457,4.280797620133965,8.133012403117698,5.062750743632642,3.25542917953914,4.799504075270203,1.9728336183869393
3,0,2.463632366896857,3.7233851807288505,4.817592748681006,8.947451796594477,5.835007792959584,3.3357648179042334,4.890200892949076,2.0934711254789984
3,0,2.9417287764729627,3.7183944428290787,4.242354407896384,9.562442024968297,5.902626893732324,3.7046527639864046,5.69735196476159,2.202086315477131
3,0,2.1596943741823673,3.348537401915282,4.878576742168308,10.81639922220933,4.67053013089431,2.5362220726300957,4.36157727831487,1.521764863224018
3,0,2.3880650988806065,3.6758707466729823,5.477577164567539,9.401511147428682,4.954283679383392,2.8599053311927465,4.920647717548059,1.5910296530736647
3,0,2.5526954972061695,3.2534753654478217,4.526563844596135,8.246390278142815,4.870493002786174,2.668403689575073,4.392136198907394,1.7816133377809023
3,0,2.7174545601912925,3.2642079981725476,4.825881608306116,8.668035133213598,5.596228648039233,3.0182195053690393,4.5351832126063965,1.8911911306389497
3,0,2.6148738848891155,2.85664903860898,4.020487682878914,7.917655017356589,4.458501138087011,2.879298013749728,4.416533436607549,1.73333602812002
3,0,2.736348797290168,3.079985778893049,4.5716434164471975,8.978187184672977,4.8903696962860135,2.9110343381861044,4.704487744381278,1.6959025857916286
3,0,2.911196947241502,2.6960808538180987,4.999718805052953,10.601327554491201,5.363502359592908,3.0364358558104088,4.967195082060653,1.9336938896176081
3,0,2.6871769651489714,2.7910485080357192,4.349609615665788,9.435229234993374,4.9058784969707405,3.017306771276012,4.983804668806567,1.9901139080868322
3,0,2.85884870615629,3.133822503878309,4.472896417806761,9.448411464233384,5.3363095989439495,3.277101361152471,4.803945351023878,1.8514210677329854
3,0,2.495822372792918,3.2692072512510912,4.667793130670271,9.979545971793561,5.066560575989764,3.4571640254550373,4.717970817815953,1.8858321947927457
3,0,2.5101393605706575,2.890801147068606,4.467772812041978,8.460023058845735,5.793286896829778,3.4583743765759984,4.9461613367089114,1.6245626725605202
3,0,2.694664136136922,3.062919750615772,5.015479259111855,8.905925825522914,5.825138527815307,3.096828340200617,5.405008217020485,1.629345139044085
3,0,3.077964803803937,3.3968408301376716,5.164595055143906,9.45543024876889,5.692061946453731,3.189568971796813,5.917440622918722,1.632096277830151
3,0,3.1120998774257513,3.2610019678824336,4.774381894832715,9.221622921669736,4.962011610744402,3.0918783961424205,5.451578466699697,1.6026481550740985
3,1,2.4712014010435706,2.726239564889001,4.762510674931003,9.438856443422024,4.873694364676941,2.95317957239193,3.6217762705755456,2.123873234846104
3,1,2.6010868832877003,2.7973578237861907,5.198733995945754,9.85180880667343,5.39686580191377,2.9086972674850498,3.769073933924648,2.09358412370967
3,1,2.5732300694024914,2.6568791541431462,5.298990186041209,10.424367577526782,5.377997675802692,3.1047311536325424,4.104277086651013,2.034440446797033
3,1,2.792079094846153,3.0334076915251753,5.918019953265516,10.199595515286056,5.846643733672802,3.7659802037478234,4.9781083373505455,2.122667287631783
3,1,2.894660824247433,2.823408448048344,6.036679149367868,10.450427922403353,6.397775040472036,3.5346920621919935,5.043901266763275,2.0800084861817965
3,1,2.4671741171026027,2.9070328761874697,6.21397829637356,9.934233089093867,5.822673016191832,3.368843054400157,4.651004505920695,1.9160234170776402
3,1,2.629489670004651,3.212517848031881,5.374885952978545,8.883110621986374,6.258395290533785,3.5818323365764138,4.538462155098714,2.059743364095179
3,1,2.148611135047466,3.319764979923611,5.411602179939575,8.902905286683625,6.191385656510599,3.19001685411984,4.35695054951607,1.894788326618784
3,1,2.2578233287990854,3.0140765012098343,5.138777318409516,9.426859653289753,6.245287513395896,3.027377082513853,4.727924168304217,1.7414171047555407
3,1,2.207119544132277,2.6433684932432904,4.7946166320028984,10.050320254803225,5.743115960509276,2.760891607872621,4.2755244945446895,1.6114965458428256
3,1,2.096892800768511,2.32974961462335,4.330993517837762,9.844028705158237,5.882561760907173,2.612564041486644,4.364308165979807,1.5091504663715172
3,1,2.1731912611263096,2.3812854891537776,3.8374566344190613,9.756626853870392,6.054874427646105,2.7386353023167156,4.446869636791306,1.4248546435105502
3,1,2.3450798818953826,2.604932314664469,4.294181270290718,9.815598643834479,6.3509195116878985,2.7743332558980276,4.454403307630704,1.5514942227072304
3,1,2.004781733808839,2.4887942492013204,4.060967358625514,10.386368531445688,5.999726405934857,2.61761002851998,4.639861605521495,1.708772759561325
3,1,2.197825291079955,2.6430763245166076,4.43637963787321,10.597670729915226,5.446405845497966,2.6775940820252107,4.534242858877704,1.6116983969495473
3,1,2.2771061935593337,2.8789787850146444,4.738572490358432,10.924239982757964,5.106536017082695,2.780712132247781,4.6751805060358205,1.5112269400887615
3,1,2.54911977725035,3.047833821854363,4.282295156330312,10.204754847289864,5.488909466076604,2.976953090252923,4.889349976806185,1.4442652726260063
3,1,2.269634003342217,3.2013754628329005,4.63953039030979,10.939503197084791,4.924619895130196,2.2598059821979484,3.98208056216446,1.373664299080244
3,1,2.3089236045966737,3.1014195666693403,4.675625625906027,10.04879317022745,5.139829684332283,2.0944554125019295,4.384426551380127,1.4073111004953573
3,1,2.4476344962631824,3.2300864963048466,4.7841206866897075,9.937315607733204,5.686940998979546,2.200756709934372,4.787004510015865,1.4743394773477985
3,1,2.300007235610499,3.120196065789062,3.9948098185375236,7.752516406183332,5.7257635285825135,2.2556619182862154,4.776541323325443,1.5467352305182291
3,1,2.412653787181101,3.464697748556548,4.1634859469084855,8.092683514268577,4.874845389863933,2.214388389434644,4.650962365971623,1.5328932702312237
3,1,2.3607354306301356,3.277614572298266,3.9833256255898033,8.206010893004377,5.346172516407236,2.2249289890815547,4.563682271955162,1.6285921721887842
3,1,2.464458651411475,3.0143137442070227,4.341065722928705,8.669963357210408,5.718415087237268,2.1928607632879227,4.860856291362859,1.6086078016614982
3,1,2.4846009133989067,2.8122699278861476,4.564881310671474,9.056147853839569,6.138916378900869,2.2201839209448067,4.157912892679629,1.6699179133624014
3,1,2.677319000856085,2.9860111675724816,4.686448097080451,9.353684754877104,5.913660786081824,2.399480005411481,4.328883396871686,1.8872502673869782
3,1,2.946514902044687,3.1634891778688825,5.010860087033761,9.816189272824056,5.349340899505131,2.5977588923983292,4.401925811364588,1.9078016104557873
3,1,2.6899440635689347,2.991428014915932,5.20784754449447,10.553825989069336,5.23931972195078,2.3254928021456713,4.78773350819736,1.9799667808950467
3,1,2.6502165475725445,2.631911273522142,4.926820486840782,9.2452347789736,5.563659313721192,2.477494305665151,4.61955487155804,1.6267512040642753
3,1,2.8124774110672575,2.941481521484173,4.653624688346831,8.633461964409378,5.569137690684985,2.679329795387782,5.0686077447777675,1.6872449849693152
3,1,2.6423132572991186,2.6926656135547336,4.759911859309371,8.192920197111144,5.621617917775373,2.3432096035245924,4.251859215006727,1.5388301481394655
3,1,2.426781595928289,2.6651709496321714,4.861960845163146,9.305377709978274,5.833783599297376,2.1710043648265427,4.120578809655042,1.6403948564845987
3,1,2.4925439942037753,2.788391898044304,4.891697360030213,7.978125447978561,6.1616117106533235,1.8712197578255148,3.8727150905945003,1.4153955892654757
3,1,2.751974202163532,3.1975359812734845,4.999476141525688,7.703358865171228,5.754003387275093,2.0262031462098102,4.018362583897636,1.6336667616374534
3,1,2.511257472906082,2.8197249762752645,4.861816713105183,7.458420985722814,5.456189815482087,2.0872618239043756,4.0340125696129885,1.537638465714252
3,1,2.382794828300742,2.883498728172721,4.665398364883204,8.094282668207008,5.607628751336181,2.2397693138031194,3.8259627287424416,1.472951688967752
3,1,2.5083279668292127,2.9340814957991617,4.919708631036956,8.619969355409866,5.876631817104179,2.342195516937772,4.237881593317015,1.530699087972926
3,1,2.731780774827302,3.0192517076996404,5.520855561457438,9.223344205488285,6.55372968055571,2.4651452091346355,4.233857865426279,1.6143174044084492
3,1,2.5163106750967303,2.7343198853307222,5.467094125841617,9.514494266274012,5.938510854283036,2.5702969340082773,3.789394566009147,1.5590622213347498
3,1,2.2883896122849836,3.0644711106423914,5.449393478590437,8.026291284026787,6.1423583114900255,2.787967990642506,3.7241966182046253,1.4948308343384338
3,1,2.493036025368722,2.861410937905973,5.565118870664037,7.2314396030682815,5.598061201221744,2.5860361799144513,3.8293931250027233,1.5330798183289087
3,1,2.371947782743787,3.0385757662378667,5.580124885950383,6.636309677602723,5.522066147492696,2.4881218767962356,3.762634912364291,1.7130737505933127
3,1,2.0665062849344107,3.109712555785791,5.844904004320923,7.016612875994445,5.4881160441756185,2.6569890851312508,3.5674179068461402,1.8144887979610955
3,1,2.079569285503918,3.0076700624922097,4.8174223669941565,6.188273438198156,5.939997184169195,2.490103465430392,3.8498822998146376,1.8198281581792837
