weight,trial,C1,C2,C3,C4,C5,C6,C7,C8
1,0,4.470036646061531,7.047717558466976,18.48260726621032,9.685367303934092,16.74602905894386,13.58764934863328,3.4168607777351756,4.235690831732352
1,0,4.500151232434379,7.2665220729224655,19.068384101025593,10.404490369351127,18.283215415933807,13.654936456419719,3.69780476464846,4.188260289041445
1,0,4.305284249308739,7.029607624441909,19.76914160487288,9.73136973252786,20.48332864064247,15.766177983001196,3.5673928281588534,4.176216012083035
1,0,4.590599333147869,7.918253704537571,21.636466316750766,10.193932344799672,19.813246279640644,15.86104901043978,3.6534106289716264,4.3620169215870295
1,0,4.8029221128557,7.443520599340022,21.069232195134582,9.725876239938065,17.910757270342447,16.21370134649669,3.8140652609199406,4.522491424198084
1,0,5.088740137175482,7.110031396516918,18.79118130993261,9.001378343821122,17.311219146756635,17.421207777436358,3.9938059998681297,4.83820103969379
1,0,5.502090274543061,6.76453866251363,18.772479230058,8.760382402326634,16.39614100745279,18.557800252307622,3.8984228591039187,4.429207582393102
1,0,5.802577886843143,7.1311025582077905,19.409647223528417,9.327331129513725,18.380486275285243,19.247597580502507,4.35508291749201,4.434634470227859
1,0,5.92888769884284,7.856964669282502,21.7953171192573,9.239575154467886,15.778060478582102,17.270992089928132,4.429191496267871,4.918866303025354
1,0,4.965657582119879,6.41007013148071,21.167590717073317,7.440591831851051,17.17385640677586,16.736971615709344,3.6381747536266613,4.2749177952955515
1,0,5.052079052866077,6.9464510263679475,22.015314754169857,7.159486796321438,18.499750903971385,17.653681690370316,3.74727013374574,3.716246333973401
1,0,5.144699713063323,7.392001131449073,20.84902381773351,7.485049755705258,18.438005900051127,19.201302049364017,3.7583301081410334,3.7136978394131583
1,0,5.2201932474747705,7.351226008353027,21.862638577633593,7.932943793314489,20.817229399703383,18.129821144834864,3.7667502876634256,4.255405975711063
1,0,5.292586474922416,7.397836688677263,20.902828133754312,7.9128034503938744,21.897716780460193,12.098950743368015,4.180422646870247,4.121721088563835
1,0,5.4318332888345155,7.423834339256747,22.237515152089408,7.750203648624108,16.538900784601665,10.69584934485299,3.8795109597459825,3.876475013200721
1,0,5.614860299612744,7.64396609375804,22.689723122336517,8.088612642135377,17.20386135845977,11.87334041697149,3.6125238209492676,4.261089508503314
1,0,5.285559070895902,7.478529051351567,21.46755243011122,8.806326447124466,19.187672197469368,12.940696849650486,3.6687213045544476,4.1553807132397935
1,0,5.534377042038226,7.912921636523668,21.304442624851315,10.169526431968857,20.058535262579955,16.562485810683274,3.3537652860675844,3.940904365372693
1,0,5.478284553920514,8.026620959036894,21.57097493019623,9.573696072605363,19.01125834975953,15.07792948004409,3.7552531557300384,4.436150209909636
1,0,5.777578313556017,8.109848839608974,21.32512436632105,9.330864824201011,19.487741527497963,13.8201557892992,3.871436190128756,4.3526165168915485
1,0,5.128501230071667,7.111250203791343,18.987100406346443,9.368324005277882,21.2342215576329,12.9083689476735,3.932502830019724,4.526717737892743
1,0,5.473625550856028,7.592592206871124,21.416705215875215,9.79469784516195,23.228975078214848,13.377226393507222,4.422716037010809,4.860105902285135
1,0,6.207410032801928,7.457587499473934,20.131966434928856,8.892004313875036,22.935894678636558,14.546146832210248,4.656223669059814,4.935733143369159
1,0,5.054750847422974,8.342934804094206,21.278887618864886,9.210338986630514,23.439324644993984,15.805112475269473,4.562108432881228,5.287007549167206
1,0,4.674370099630091,8.23536856070872,22.49495426738392,10.612129899672091,27.461220039111335,16.558073408810433,4.923521122365116,5.411506597939928
1,0,4.737120675476617,8.090581137452649,22.216518468052236,9.425030884232234,20.221644835824936,13.461413623795679,5.1468296581446165,4.849758822108784
1,0,4.369212024989306,8.679274854669986,22.807807642863356,10.264638093481855,21.942401984558952,14.454802299232108,5.124099388466921,4.275140092397295
1,0,4.246331352551022,8.76511020304662,21.70379863375206,10.727935970494242,21.91957531055205,14.600655779938144,5.497404022356051,4.614730806580069
1,0,4.473995182152546,9.512491673369556,24.159178564019644,10.078909219962378,20.540074809555872,15.211100200203708,4.8750199356134845,4.3761041528939595
1,0,4.230410799637065,9.557264819852614,24.299258504064777,9.59908109259188,22.217325740428805,15.67118814463144,5.030435197685791,4.35066787994929
1,0,4.533454132577974,9.618165073623159,24.757037332686174,9.532404018298294,16.698426723468426,17.25749202788409,5.33252991138191,4.429644400843823
1,0,3.725653227076527,9.056478911325552,26.267973658904157,9.392315760731767,17.56567264070351,17.94395661329528,4.977655406587294,4.315375642504962
1,0,4.079335959775138,8.069445936996551,22.413633838590613,10.096321052760459,18.151169564065494,13.65454448725965,5.394817071351154,4.003297159047512
1,0,4.341360642347783,8.22635531075844,23.971948646475795,9.124562397298545,19.75459371454346,14.902745276946916,5.5528761063759795,4.223067716222929
1,0,4.385425144244462,8.76745125330521,25.67259525572509,8.924750330054975,19.23205631846795,15.58313450722314,6.226925786489654,4.712738032293333
1,0,5.151768740507427,8.984905580232931,24.210413096785125,9.903232565483291,16.325881512020473,16.55218930420045,6.186768658173904,3.8793392534025517
1,0,4.537890824771596,8.01475137692373,19.77744100173964,10.15713158647139,17.037039852946055,16.35940962621245,5.496383218277398,3.930763729442794
1,0,4.741645962253622,8.316026385456492,20.074177234007998,10.150535939975201,16.358372466106964,12.714158201208152,5.60673988881716,3.712127129243143
1,0,4.216917789452075,8.83103652374122,21.917708241240803,10.063253542181704,15.598043346598027,12.80880696424201,4.247594796712317,3.51924749026209
1,0,4.37163669270278,9.037047768100594,22.066550104376077,9.306736062830156,15.573689164174905,14.746456783233274,4.406715536517282,3.710161669976905
1,0,4.035977207723827,9.005195981096206,21.985496750599744,9.308467451992401,16.031316190121395,14.733920416583542,4.789308697192376,3.8206872990705003
1,0,4.376548323225685,10.018008953393982,24.665635805733466,9.675053165383494,12.503739445884811,13.79179675868418,4.808367647394891,4.143568202967111
1,0,3.6745976539816194,9.399843986879116,25.37705696292087,9.335272144121229,11.00331969688635,15.937379231265101,4.550131615621572,4.14639532673614
1,0,3.4605806673060786,7.498978008186531,19.14927594233858,8.599591627736023,11.43044832294133,16.613066424437378,4.921539104338339,4.247590312150052
1,0,3.479455145996459,7.628251154719505,20.09724573968481,9.158886925175999,11.626793182930015,16.976395824601266,4.629073445286329,3.6734136671755655
1,0,3.674649229477795,7.556390457380807,19.014707370951577,8.662797887597673,12.191724858379724,14.240301216767474,3.941726710828391,3.7838860406844845
1,0,4.235724116865238,8.066122730718265,19.637427400548997,9.895295044604774,11.251993561443015,14.277858646690888,4.473751041333744,3.837102231696289
1,0,4.385034976006378,8.182422955884794,21.09399896515148,9.519102571440413,12.40403266828185,15.224248603880445,4.835872810519097,4.078711989069115
1,0,4.763117633060395,8.061932789027466,21.42245942672296,9.47156651643005,12.630503540387714,17.080816382564986,5.379562214120782,3.77206962226495
1,0,4.351221553797416,7.709165733514565,19.688094119147422,8.15910234596564,13.333494119632045,16.935030328144364,4.67331814628945,3.667669386528939
1,0,4.301840673458411,7.276681077993528,19.624581363028135,7.922611176649783,13.561484120261522,17.159917081634568,4.518064163110257,3.679737371291267
1,0,4.208602989836599,7.404275382832709,21.101089623892303,8.322952884418909,13.14892549079687,16.756303516171236,4.368693004049702,3.9159224875151906
1,0,3.753653809610985,7.986229851585085,21.855524429047186,8.677739134960344,12.820336089841936,17.289064950657632,4.461157855408262,3.4959374806984975
1,0,3.998773399680956,8.71931464054472,23.784545556337225,9.17242927628242,13.693645108782736,17.44803121744401,4.7784625514437575,3.4744028587693765
1,0,4.315978397124566,8.352289745592685,21.310334824711436,8.511794671374656,13.661356307059345,17.536351208321005,4.299422293522292,3.72468379044509
1,0,3.9750945868523795,8.628704226397597,21.770893493024005,8.117059462898476,13.357272874858495,15.675573739691291,4.2367417069826985,3.3661033665592184
1,0,4.132726599905848,8.341968842081833,20.362369803877773,8.547673426207133,13.966914998784569,15.97076953338455,4.476191461830191,3.6307226740523553
1,0,3.4495936857681295,8.251311608050361,21.202317323493396,8.958479606348089,15.362995660628076,17.170833741407403,4.564306732987022,3.453275034099132
1,0,3.5254580328997864,7.7492334076551765,19.86042176336611,9.015932011386901,15.987676661824755,17.11616921995715,4.64569585230797,3.5955634899587174
1,0,3.9128329941322404,7.050782919974753,16.08523278161453,8.593699062128184,16.503553280921675,19.324701915244976,4.604158781912818,4.131049174803165
1,0,4.331465858202073,7.570798078312255,17.101787464738948,10.417163803620104,17.342010523843186,19.076379092482583,5.412912655938177,4.226769057151822
1,0,4.054961610754097,8.328172464771617,18.8428610592621,9.563682630476949,16.131225574750367,18.890847812607564,5.693163364997982,4.254233593839141
1,0,3.7877155218871508,8.398894304492654,19.506877189376368,8.458492563427752,16.290719824611227,19.580761047161474,4.490801706723734,3.423616404350813
1,0,4.2836523200921235,8.470327069895703,19.12737052295295,8.29349819138,16.984063236779882,20.255697999917487,4.956378164674092,3.9412556210394825
1,0,4.036762445043067,7.782609105460731,18.397223941634365,8.451030891563175,15.77758297917282,18.245121286897543,4.597911753238315,3.3284143033496987
1,0,4.009377724406433,7.783560317538255,16.311291113513853,9.184902915936672,16.425224054034732,18.797538107299513,4.903492763003085,3.4198302719046545
1,0,3.4050558194204044,7.390135553381347,18.853595319643343,8.256365362410898,15.339194751363943,17.975156408911737,3.8937567943581177,2.989974398227507
1,0,3.597732266682776,7.743360204127393,19.36652234457104,8.447027545334077,14.157477977070409,17.857993950759653,4.104511531508537,2.7347844625854663
1,0,3.8020246749943594,8.05865591370591,18.57210160092875,7.436047438006196,14.02470210779784,18.469124986998274,4.376631358669345,2.9926895701432343
1,0,3.5926275451660286,7.054450178962283,18.710726215495214,7.243238547859368,15.261114573352366,20.72723044718034,4.050008458129582,3.2442267811259446
1,0,3.6291435021392444,7.616691870935254,20.79259265489232,7.1454289804318964,16.80562938577173,18.97076013088731,4.006869011664274,3.1553505572540934
1,0,3.374394676469407,7.331624003750538,19.86779338916103,7.5391789982316215,17.690435527913877,19.31968680939651,3.6726245244794606,2.744017425360398
1,0,3.618721750462778,7.663101331786857,18.701392846508327,8.456376566886622,18.334599217068643,16.86795579220909,4.046370935078022,2.9570795169683177
1,0,3.493265697237095,8.407931734033964,20.622305478210823,8.926554778664224,16.292736119861736,17.4991355408313,4.2947411336354175,2.960101014353993
1,0,3.830194523451451,9.239990162764045,23.154749593632868,9.975214186039507,18.163147504282062,19.355242665645413,4.684646846897467,2.887803084601147
1,0,3.992905786210351,9.50840609904165,22.484049756615498,9.453066618580745,17.614249851925255,19.943562885242166,4.100338686870135,2.9903984096497687
1,0,3.8321670256935025,7.82380490681219,18.54075110286324,9.63154089710207,16.821615695800137,20.48800278540476,4.606975216346574,3.6018549042623524
1,0,3.643796080623301,8.003143361206371,20.156394239090176,10.216257854819888,16.328577466169254,17.023611679751152,3.8879464994198725,2.853347291875261
1,0,3.6239824629389865,7.82071284707585,20.49245854971598,10.984505601270179,15.093914879084268,16.51893578518623,3.958198404671965,2.5662786307678123
1,0,4.028972489814932,7.459163926647994,18.717613078475217,10.523171955158428,14.966381612605995,16.56386606924727,3.9618640888514727,2.698454313626017
1,0,3.936715228079852,7.888140737567714,21.351135713834115,11.712640515562905,15.2498759290197,15.78417967043607,4.045712771743578,2.8110756878625867
1,0,3.7267424374768447,6.998888165562609,19.46263958939616,9.542180704649715,14.246059012058803,16.636120809755433,4.274733389994521,2.6808328562004444
1,0,3.673302167682347,6.939687392499153,18.591044558495,8.939497147380113,15.123162776365115,16.430817182922464,4.502850794710828,2.898703815557179
1,0,3.397521066737605,6.452713113438962,17.025249211659663,8.770275523255675,17.640070601322595,17.148002251053395,4.392720834062133,2.896440967113892
1,0,3.3210581317418515,4.846380062490506,12.988401079281848,8.635433742642144,15.784035425672775,13.869793908621608,4.884044374517788,2.7091239586413183
1,0,3.1176681893703035,4.926328303653053,13.97038711623621,8.305052575363097,16.08565668993123,15.060760098405666,4.725260713608604,2.89561787555418
1,0,3.1395703297755713,5.172112913236023,15.17647967635597,9.076369627808841,17.121139095126956,14.29674221239884,4.937196791500891,3.041478339295001
1,0,3.4155685640125264,5.813057081049745,15.932480129417097,9.657526120762444,16.570918565270677,14.964177906440236,5.103984969545505,3.0122476411352195
1,0,2.95501310985079,6.064058171354278,16.202093715990706,8.789335826932106,17.820513477818288,15.095422216147384,4.990017760863052,2.8465207768040464
1,0,3.036463493499049,5.994507515713307,17.468560380799964,8.34485992870767,18.386757015368335,13.636266917578993,4.543124061428354,3.134402063362068
1,0,3.121757006207749,5.844313525499965,15.147888834869153,8.920572676462653,18.821186594924097,14.372773912241774,4.813800237110567,2.8905316541007915
1,0,2.8038694242778655,5.836157407696101,14.334029521035504,8.87806857730538,19.299203679760655,15.308480047130434,4.318916021566431,3.008215579885674
1,0,3.0636357780847154,6.381406114173,16.325174671810515,9.780760605088663,19.340966633124594,16.482065177808,4.70450613666122,2.75252289557453
1,0,3.118935777244752,6.468763609545914,17.68194640931664,9.770363325428553,20.32642212940911,16.029384510476785,4.80837537960723,2.840766404752961
1,0,3.0377102012796726,6.359507028529822,18.136237588591083,11.186305012176424,19.419545273156757,17.801638983947683,5.311635516250395,3.2063816554630793
1,0,3.014461174114859,6.87538397882344,15.923972885102037,12.034356055273829,20.100433450648683,18.412015797073007,5.725816853174675,3.639051579663239
1,0,3.0960722470367896,6.720105183190969,15.462976080898098,11.779736301659726,19.105529174848126,17.78436954857067,6.082995172152166,3.915752113298433
1,0,3.4140739985263795,6.968685265515615,15.669230274594238,12.87834662200054,20.537794826591867,18.064499528369737,5.8193703951528875,3.828844677479104
1,0,3.6622680091010182,7.747026868583671,16.382148667395793,12.043742669328239,21.095995034817715,19.09443377292281,5.923291486403729,3.8584037681494556
1,0,3.438810763676058,7.587647207683815,16.520561709273316,11.165838267636506,18.542684854782724,16.25539741167863,5.082901200397411,3.3203861385113886
1,0,3.731495389928143,7.851853681473301,17.99115234034977,11.346051929659803,18.3628756621133,16.09434031448203,5.8031928674013855,3.7851693376466
1,0,3.549808117336793,7.699162846594738,17.926021884581726,10.624306314047898,17.30105903728748,16.655430180061234,5.18834112675116,3.8599959281861174
1,0,3.7328612874141354,8.609937187167668,18.985161375828888,11.446774621148448,17.40658656249077,16.766326281345645,4.969032907151165,4.223187721610806
1,0,3.740432974953549,8.769114206366297,19.97790960583013,12.072431772648292,18.49034148064042,15.419779342412872,5.103550747916006,4.126126036133734
1,0,3.541620254438078,8.021956597411181,18.791063300841294,11.279785410779823,19.4113618734258,15.048884965543726,5.5654117720881615,4.156800227389903
1,0,3.632959864251705,8.327131202545337,18.822486860799142,11.01663827938149,19.52326800131087,15.793124452136107,5.709137659194811,4.143678198277151
1,0,3.5572893523532327,9.147667132662868,21.447900216092197,11.625433706297194,17.901328973213037,16.05790660615376,5.909592382606296,3.8758946572268154
1,0,3.9509020519476343,8.65503955204661,19.34795323133682,11.601440558556144,17.936280555575998,17.801529214672733,6.315145036597769,4.188139494747644
1,0,4.237349694251902,9.22240812148623,20.61655099298334,10.474172891754623,17.38003818313655,17.9787375826924,5.746892078563743,3.5518258905234963
1,0,3.8561670374657298,8.12219844418474,18.720159457752164,11.068610882272313,18.661729882825448,18.679773741355433,5.817905420071985,3.6098608895016624
1,0,4.0693462297000105,8.686823798279555,20.302401729683382,10.096980089123907,14.377517830248445,17.806108934953293,5.740875308410203,4.013604472182474
1,0,4.554717538598881,8.546551834171996,18.504796277392895,10.46231665333621,16.044060390975893,18.382943860452713,6.364075273246503,4.162694900954449
1,0,4.583639451452458,8.87038232329975,17.333436606602,10.9581506603342,16.80751621537899,20.4319274220467,6.121381189655847,3.9806659466237293
1,0,4.237749695660855,7.4953270145549356,16.299363944678053,11.126801465116706,17.877729085681466,20.151378579793093,6.017115179151017,3.99698540410339
1,0,4.738366327068852,8.23470236982546,17.149533182937933,9.680640599710353,15.078470946296443,21.61999494386843,5.808803765702121,4.347671463279544
1,0,5.183316886035297,8.382732573606749,18.885745515180595,10.724233862855979,15.880561513162696,22.154998150591158,5.7955745796001255,4.295639567855145
1,0,3.691006098949601,8.141272410906348,18.680114165749966,9.420960294951268,13.19186250913793,21.392080473431704,5.757966439893018,3.9608715817550526
1,0,3.9394602436718515,7.588158303724839,17.810961570523837,9.522300555431382,14.552343461853388,22.77404078651067,5.7427160929551135,4.08809301374279
1,0,3.6550728124804657,7.939189011856586,20.232706696293405,10.810519820930374,16.179511804340443,19.568962934330255,5.627624678951146,3.7744800301241375
1,0,4.012819285033677,7.758133133746169,18.586993371552776,9.93509431412965,17.437669214511732,20.92307608839538,6.1973285657185215,4.0810314114184925
1,0,4.145986842664394,7.513709425211901,18.79075550187727,10.906984758773064,18.626624534664455,20.174899658117496,6.168698512682021,3.832379131032374
1,0,3.377402867849687,6.812738536045055,17.852814652576594,10.62811941741273,19.090140370719904,20.562603998094136,5.445484533647151,3.4076779523616616
1,0,3.3434358492293987,6.981145382759773,17.37631292454933,9.14947344587517,20.806828353466955,21.19992261896101,5.686252660224554,3.5604353998911336
1,0,3.3038740211616675,7.717290716787522,18.48299647015269,9.263390121260977,19.153826497561873,21.699802763741285,5.999230859673455,3.5077646954241004
1,0,3.1135920672128483,7.680201519388793,18.90969932583876,9.235989335617724,17.46580765306675,23.74149109977106,5.410853531279594,3.026412923647197
1,0,2.8108022672028663,7.274423886430482,18.44407897754236,10.423909183517063,18.975468019852766,25.377654531149897,5.705308929917076,3.026412155990938
1,0,2.928896746290456,7.064081834466362,18.343101953065574,9.434068548127817,20.06274471316154,25.971985074591984,5.797703689322351,3.1661358753441187
1,0,2.945713193652084,7.590306443708911,19.093212941217516,8.27779603044295,19.539157433717808,26.798911116172142,5.8265205136931,3.3419829413451305
1,0,3.42333432261462,6.569769893095297,16.26569004339165,9.006970533372163,17.37492366398882,19.301190035307187,4.958841587837667,3.107574814571114
1,0,3.3811421325425166,7.042006996276404,16.672684317581815,8.346314179474726,17.715767501964088,19.87092792221631,5.093391010497761,3.2159518401364444
1,0,3.4270262735966575,7.378870921080951,17.724242451369655,8.82431100876553,18.253309949856618,20.599664869111145,4.76916076325952,3.4285515066023224
1,0,3.555097417218731,7.369824950032094,18.59316709035071,9.471254379193494,19.435695442887358,21.90530283263571,4.8060463179173585,3.6022251244117696
1,0,3.541443553519623,7.882184141482638,19.726762336536233,8.999622351935363,19.088474502352,20.235385786646198,3.8697722907802485,3.0893946376001553
1,0,3.4390662325324897,7.531955626687562,20.25784079897283,9.406213394727908,17.987045484442156,21.24164801671687,3.908114131016471,3.1113797800714145
1,0,3.3213991342588627,8.139130444251844,21.087525592900633,9.719770129130088,18.354885591574895,18.907755241168438,4.229906068295456,3.2407635675844775
1,1,4.558071877020463,9.130798579856144,22.459149422804614,10.351867242930593,15.242513905275286,17.62496591214612,6.284677155215606,4.727818902761285
1,1,4.222670334186778,8.717184061870672,23.061162350010385,8.320651125871832,16.315274131600443,18.13968365489752,6.2778029322242155,4.8368908685350815
1,1,4.451206432884673,7.632060304217265,19.90541678647415,8.720831430833707,17.015225890918448,18.940477841722398,6.21500014967871,5.236109768139503
1,1,4.747641731075499,7.687262622776104,19.24591327590332,9.46742598717831,16.628397052598874,19.73239084137779,6.369898329303812,5.29374833152949
1,1,4.341691939510892,6.686192665044629,18.936187530596683,9.004394783806589,16.808943007387175,20.82673909373685,6.243668498043254,5.123409740136457
1,1,4.803602869547864,7.2588367358777885,20.48272556447352,9.971058768397187,17.6564934381172,19.59148215736198,6.385297279398021,5.252806550921951
1,1,4.855213557812733,7.7243271792622075,21.298685665005916,9.882765041570092,17.699414948793972,17.6795524070596,6.857085316307535,4.953725278047748
1,1,4.449312492115493,6.966748534800318,19.479732948589593,10.63787153553376,18.590703896711474,16.895689796338647,6.233175278179834,4.6180870680511985
1,1,4.381843298326291,6.19048334158283,17.435475605544262,9.785010653248952,16.963598273540043,18.27389692852936,6.265729361838291,4.512511801096621
1,1,4.539214862383383,6.643440377114274,18.830138012085364,9.612236788926634,17.165719435016264,16.287939974037126,5.346653324942228,4.009820536813529
1,1,4.433154262612418,6.778619490875167,18.99315753523427,9.155819502607214,18.687535369613,17.559783286203135,5.672940689213589,4.172636162040383
1,1,4.989778426074343,7.4602808824979885,19.838433514962336,9.550768554569641,18.76560255061738,18.59367570224616,5.273504037813395,3.9911175699132966
1,1,4.838447555864752,6.027403886499972,16.946338519538,9.667172597872591,19.042156716344234,18.507810648771148,5.703887338183976,3.8029720555246924
1,1,4.368315312181028,5.926853756530084,16.604218427230922,9.63590650116667,17.569352436681868,19.621828928064414,6.090540745369283,4.174248370570072
1,1,3.5143656981142017,6.06802963634736,15.60646818341292,9.001003488714147,17.160966612862335,20.483405988972326,4.806372575838541,4.116563932036725
1,1,3.201590051044911,6.016744858612086,15.933496111818773,8.93088686781755,17.426374375817964,21.86430389008011,4.99771329098026,4.090594981192461
1,1,3.305168500323641,5.72227255254682,15.981830516200596,8.990406468111292,18.805105758135085,19.485036240587526,4.539758178604887,4.09743311533054
1,1,2.994753404118308,4.7977531306975125,14.120082033241081,8.445348116403649,19.89369305505471,21.25412944995696,4.722154389146858,4.632635252586809
1,1,3.0897410428122,5.075943715894528,12.433238867650362,8.05657754350603,21.587849191518952,19.958044776818365,4.636015508353006,4.125769683054869
1,1,3.235015312480796,5.08565042380239,12.812838608945922,8.205302019400046,18.725360122296973,18.55281754560806,4.368405018066298,3.7621000220625427
1,1,3.4514766554136393,5.475390927122475,13.415517786954444,8.499776606956042,19.75733332104527,18.2979126115303,4.6842464335387595,3.4629086777159293
1,1,3.3192042383667717,5.441458038638801,13.748837362815772,9.382696832642658,19.2632308121387,19.526301612723156,4.545981264741701,3.483099968850395
1,1,3.4687157401847926,5.741391778490537,14.164656671115456,9.080943686790471,18.46753965604462,19.769013957212792,4.744159309222739,3.8237355710673206
1,1,3.229595893161099,6.57621985820415,15.748635071548607,10.13993122081515,20.341158072404376,20.14174960671614,4.449837887562422,3.5691079493025497
1,1,3.3589106911851307,5.486607848807549,14.27108105655715,9.987539918764515,19.027291472865706,18.653674506266963,4.656036793112935,3.6339599709401655
1,1,3.505311653444347,5.969483451527513,15.055818612787618,9.510798247512344,19.00902597235842,19.206163178680544,5.102966926406771,3.593411095716588
1,1,3.4738531579503396,5.7682718286114945,15.40101380736162,9.692617650466053,19.744380736765155,18.829508582598574,4.412226105788047,3.486185576939007
1,1,3.63192236349446,6.191931342274419,15.696704889279506,9.604070386019169,19.935992308724444,18.31337915235827,4.770037048120668,3.8250611452329717
1,1,3.315490468989695,5.900066454668206,14.407829793578031,8.639127297902943,20.697524015538907,17.309397286770004,4.686248254306597,3.9948449942911384
1,1,3.6472433474001744,6.440028818079561,15.277347386325507,9.22933125091705,20.632751444054822,18.257535920387422,4.4652866344702735,4.159984354111405
1,1,3.620700688807279,6.056484861676075,14.304083020767644,9.144238964864764,19.962535707744756,18.514616196759047,3.904701167010907,3.8434291691625506
1,1,3.484601478100332,6.364924767319547,15.42292356888404,9.151400480824874,20.169882566471923,18.085191830914145,3.880427145793672,3.775966137236299
1,1,3.519277657379064,6.341667815462375,15.105825998496096,9.527375538266112,20.234311937088382,17.46567706955242,3.8340728440833067,3.5823840375995073
1,1,3.4387647293719907,6.47394082251983,14.551272113577534,9.886975213563925,20.1199238139118,17.890637545059835,3.589806906760464,3.5957839833645804
1,1,3.2965984497184864,6.9434560196045645,15.44592778434587,8.541452260602426,17.90518615170576,14.839197861422528,3.787160821932222,3.6641139112718477
1,1,2.795474375240836,6.672122039589058,16.846859725425563,9.293287166765309,17.82265524680701,15.99146270753751,3.9464440350798995,3.55696252107422
1,1,2.714503885579361,7.361738957643958,17.497513280497262,9.582628800539482,15.407828719423174,16.515299458133594,4.2944440925972,3.549334343648134
1,1,2.816691972967106,6.456331489426997,16.582022541002143,9.720203542625583,16.253619788135392,16.69947155514134,4.4490537909698835,3.700431469968302
1,1,2.8580502786761652,6.672577929112774,17.57453862528494,9.81475179045649,17.6410277190825,16.9438669191663,4.315995631248774,3.6147170626717937
1,1,2.9204481160963858,6.776956933870498,17.841262593620183,9.40372455032916,17.923014937897573,18.24044041804163,4.474927707539302,3.687613103071495
1,1,2.976829050295139,6.395158852808802,16.234333434233267,9.63772984450629,17.579600289545663,18.164909493445357,4.571061537689367,3.7186072848883875
1,1,3.0547551061226663,6.72866050157491,17.120106172724416,10.448235436981962,17.312390924448863,19.98469377703015,4.2602616575792736,3.82301877389874
1,1,2.853097497570913,6.484523361516021,16.467695660199897,9.355595527964724,15.236849180401059,17.607877140028027,4.910378438433176,4.0094622675232445
1,1,2.946149106367345,6.5158893168166925,16.6345097520955,9.84887069773032,14.920275273892566,16.2905646678,4.764136469034479,4.301935403255411
1,1,2.9798367873902283,6.973461944830028,17.331147373088594,8.840007285349214,16.86959197235918,15.787142711180735,4.608990690298263,3.9750921079201564
1,1,3.2176695944417966,6.750266024226003,15.57129267650202,9.463549173909334,16.220112771676565,16.22355462192905,5.026426712065832,4.130302217303703
1,1,3.357305292446887,6.524339108999875,16.58180264978152,8.768139324656728,17.408480792173627,16.839437706586143,5.12812855993983,4.502229978458618
1,1,3.294490944449753,6.754947267885237,17.237769408441444,9.745762410216038,17.227876934698532,17.798383733396808,5.277842763935216,4.290525871391126
1,1,3.26557682533914,6.4767215163406116,16.676098140409593,8.301497391183611,17.663096427753654,18.723771367435678,5.027344014247121,4.2253109043853465
1,1,3.262712011558355,7.046466638537584,18.35604634948785,8.564229646396024,19.557800054252812,16.45211112992962,5.210102808403369,3.963717264316092
1,1,3.890887904247037,6.849524151312376,16.70242406798416,8.160923140046963,21.47406549163749,16.389465590800086,4.792716222360591,4.121375688533069
1,1,3.4429113705240977,6.618658208138441,16.362971458144546,8.005420776657683,19.786688900137257,16.586340764325467,4.604562304729161,4.268641574572589
1,1,3.3336335529289363,6.469259027452687,17.266525713977266,8.548806138831726,20.495121493555395,18.17665494957895,4.739084188258644,4.539731479480848
1,1,3.301763560367336,6.728259788409493,18.413545750169586,8.629568221686249,18.748021219113,17.917658870242807,5.016253566376543,4.4808791524451275
1,1,3.475558524636045,7.135234180138327,19.276060454456378,9.262971894196227,20.070400380589227,16.882369654863414,5.006301341988903,4.30340961895164
1,1,3.5329959467387524,7.6665159549181485,19.360074696277014,9.104296811325467,19.9769487360796,16.767591222457504,5.025900070924905,4.462451799156452
1,1,3.662927387967782,7.7862133455318805,19.338795407588044,9.399924181494145,19.108872290540727,17.484179237490256,4.929979366111367,4.624603631640212
1,1,3.887027827958035,8.37404324357175,21.738886229799963,8.72938546979233,19.26124485984632,17.82573165917556,5.094963370018095,5.166749844978028
1,1,3.3913202416255377,7.5098609518580135,19.462003888435152,9.668884462551045,18.57713975034736,18.956981434508908,4.607362044202997,4.932778100330251
1,1,3.6987897384962416,8.398555527097315,19.927352708697477,9.054214420297864,19.859553497023413,19.031612841786608,5.256505591954131,4.987643490305072
1,1,3.937396573554051,8.461383153598488,19.909763093886,9.062873905617963,20.60566109147513,20.353981819149816,5.291559814707265,4.64841692783582
1,1,3.7817989594070163,8.65530451305905,19.75882543714442,8.876249406558149,21.60536032632448,21.065986226020055,5.410348050675018,4.905981453844242
1,1,3.6244759401060263,9.145228981086499,21.46667348968344,9.666807715926621,20.367669384276862,21.189901045503245,5.117364639914233,5.057244721708721
1,1,3.7570167673303687,9.55451259080182,19.768737831093535,9.988793042858225,17.918510593027857,18.568076313248145,5.874038287714421,4.8181732625195846
1,1,3.311822106725392,8.50224616079676,18.377180488810097,9.3492115321401,18.974079200042187,19.19291610787713,5.1535782539325306,4.647447295923583
1,1,3.205301189960777,8.443149323754632,20.463176327956,9.645193215975466,19.750133521175417,19.903249398461302,4.98486766029327,4.674918200061284
1,1,3.1812216565917413,8.246410715217202,20.28957632104944,7.253571896488527,20.594248794808507,21.19426023326181,5.33750809497379,5.3022254594730205
1,1,3.19936505147535,8.220491376224281,20.413169413786925,7.72044015248055,22.017495266879315,20.36908833222042,5.631348961387873,5.83016493467537
1,1,3.3340561762005647,7.353140224221853,19.48657237327858,8.082637462819317,19.403202163003055,21.20611825710369,5.635007079307664,5.74640178965727
1,1,3.8554488207740536,7.939486796883301,20.560369067131717,7.761599378212829,19.24516408579316,21.832021399879203,5.030432522458677,4.899843482706339
1,1,4.437500759229705,7.713901496360293,19.03169723265632,7.785972127856931,20.05260020977336,21.005059343874333,4.635018052395865,4.393430176816193
1,1,3.499688528946568,7.0792677697594195,17.192900412258293,7.835051089013017,20.877908112003023,20.420728797673366,4.708240392641054,4.967271400137741
1,1,3.5208159645120776,6.657708643437937,15.105673060431236,9.123699769972925,21.83069376975195,20.795717238247846,4.723640305100423,4.749007205436728
1,1,3.9244620306979843,7.205703750650532,16.288734442182,9.181964476963598,22.23232828481835,22.288167453737888,5.272048385116184,4.948038444901303
1,1,3.8588807058338643,5.799029585760688,13.771147425755533,9.053420811667532,19.508615979215048,22.941568779358782,4.633505335404732,3.745197572659216
1,1,4.0075547004703225,5.8812418556308295,13.940575914267615,8.411398119868918,18.154552908097855,22.816467435862535,4.630448078472244,3.9424950185689123
1,1,3.866693688598445,5.73964885362487,14.773630906210885,7.93483556214349,19.655748419421478,24.793721546798032,4.443180865186978,3.008340333119842
1,1,3.3987591973621076,5.982038377810955,15.083893451380499,8.484080726611012,20.852195627475314,24.987011421891676,4.519546853650722,3.3682019855719236
1,1,3.9931777331819407,6.555939424305959,15.500088197604414,8.488787904348708,17.792742266200705,23.43033632015058,4.613823045272409,3.2910357820265714
1,1,3.9740401456639645,6.994119053819935,14.795633366739425,8.690670906405433,18.595425290074072,19.778746126992072,4.073526029104636,3.5338391135790093
1,1,3.9523967730557845,7.130525081430776,14.995981545414306,8.544265996270493,18.55792679952521,20.034956439483892,4.136594193465228,3.425071693766761
1,1,3.9099234555618887,7.269380301251268,16.37305450096115,9.296909168793377,16.962902825726562,21.9179978548529,4.4602193366064276,3.5663360557945114
1,1,4.50075034394082,6.567664455672606,15.757159284207395,9.912883039320693,18.135297273605193,20.049120540600228,3.9894557927245504,3.6799996784781217
1,1,4.1654703535144115,7.260508946072205,17.43293852214165,10.814527490670441,15.902880370245251,20.898669799974233,4.254302298124679,4.1288747701132325
1,1,4.449168892416241,7.835336518337039,19.23399399600335,11.195600262900841,16.47977442374145,22.507532467397365,4.379199616167239,3.8342679468920227
1,1,4.3973390687674385,7.6773403371596185,18.705935055308878,10.874534137049805,17.457782447204483,23.675380611999337,4.739932953518791,3.832464708927983
1,1,4.7410417831601865,7.935533236435525,19.744974116251015,11.940871077796155,18.482409288658125,23.37521243905891,5.126122195152871,4.3248197560211405
1,1,4.665204068574522,7.6944525362343885,20.19638216204173,9.844325774149077,15.317773096659524,24.127973043551197,4.855918943143478,4.492095650145307
1,1,4.098772016938408,7.380231920041621,19.64350830142024,9.08011104926616,14.204387330081024,20.68804758392544,4.531189740663244,3.832007599206467
1,1,4.057603836801302,7.374577477917938,20.00079175868664,9.325099634109364,14.775556884693756,17.056265972125455,4.761347656474491,3.8768655202983937
1,1,4.20649935600593,7.7751415101897745,21.10281367053552,8.885600699295745,15.324961778811693,17.53665339651329,4.915011153751539,4.017268000740309
1,1,4.059673426324894,7.927155144595965,21.689678120143135,9.755962390702312,15.580275194048479,17.916373463795622,5.020375834599531,3.642555879953601
1,1,4.452664381713701,6.958061685697919,18.585056804250733,9.024115410269491,17.465103807400443,20.143286107127544,5.304429006504674,4.044944077026851
1,1,4.190888760459368,6.888146586999955,19.06632925738909,9.746659247112476,17.222755676131523,20.987758219937547,5.3464245598890745,3.944047431950525
1,1,4.336577935727092,7.278146649212745,19.756323260743873,10.139480968024769,17.97841859880553,21.876727761420067,5.677974612149832,3.8812285484630937
1,1,4.922235886018584,8.070189733513965,20.984631825302152,10.838782898102696,17.10461310311897,21.894433158571296,5.3098380270732495,3.9887095682457288
1,1,5.021854158363416,8.391263213882795,21.30749757484054,11.358154310896069,17.457492496449923,21.5179830002906,5.426768233904115,4.194742381970663
1,1,4.844967815016324,8.936972838457413,22.723156481585328,9.906909131866215,18.4592456758374,20.553438519911197,5.528677639633925,4.4140498147998
1,1,4.735448855001388,8.721063002017186,23.934262960691054,10.606027154591793,17.254102869511453,21.887202362413525,4.937757861732624,4.15363745753322
1,1,5.174467822050316,7.6082110556543325,19.73671541449706,8.326196707750594,17.154712696781917,23.587182411514895,5.56937991608918,4.245323880770874
1,1,4.553436211331713,8.288904130487225,21.434838536858738,8.12463117957264,17.011324096141273,24.30030615364226,4.967606505653755,4.069854655896257
1,1,4.754132332821693,8.8347095666286,21.574371569503544,8.40759504564397,15.000277266199024,22.114599439825266,5.343917706486614,4.473542435974703
1,1,4.680729223033579,7.992008010680276,19.340948788594126,9.278897700806395,15.211044018774775,21.835761815034324,5.586300873850768,4.5179019171736545
1,1,4.692526231055727,7.988076218028961,19.99921890811553,9.053856220016954,17.664376776182024,23.449176124089423,4.978864669626751,4.1067985664359625
1,1,5.0554812529437205,8.281557495391946,20.06223193366267,9.544511520123521,14.132146300446678,18.641454497797298,5.05612277540534,4.26353194400806
1,1,4.933013354686065,7.302461597269196,19.56360870005633,9.70669536108162,15.655943938455287,19.553495390914403,5.540270033737826,4.406901425497298
1,1,5.3667144840739756,7.563388173567697,20.23724545208495,9.53325357505356,17.18999890534431,18.26329204185181,4.961121026393093,4.635249421006636
1,1,4.663469609845652,7.174626490195294,19.45812928786598,9.538556783483148,18.336989699804867,16.55254119875267,4.764941657279442,4.027749765340854
1,1,4.788885801975124,7.579608479573656,20.00113857890557,10.334401081575395,20.2167783343259,17.71349368380817,5.1370160759766055,4.224383963106012
1,1,5.08579644208257,8.067952898205565,22.21214547568542,10.895995059162447,19.539269647995777,16.68265041832015,5.25282552203367,3.769232541903401
1,1,5.318791391040092,7.995808147529462,21.43952487779881,11.52234260215358,18.737051023787394,18.860334417424763,5.367154274745895,3.736218880671772
1,1,5.522229142843803,7.913901355662628,20.412289758230198,12.440626686233873,16.239869508881895,18.865386163178446,5.047838343927994,4.022438545900812
1,1,5.548923277047637,7.5326661846211636,17.766708696194694,12.690050728577745,16.471035069029696,15.068565245023828,5.336381626093397,4.099452341574683
1,1,5.332719081049324,8.158776793287991,18.572356308770566,13.739324027562422,16.545873256406523,16.427947781582077,4.916103462844277,3.201549696900025
1,1,5.852636086616227,7.627065046084379,19.2572094724336,15.191092327190882,17.925443877673406,15.928039811823478,5.570687498202197,3.41533674513358
1,1,5.233647825190149,7.561363694074093,19.062689936880346,13.159828737217268,15.649279576061073,15.673871221499601,5.804233124685465,3.3975071674622646
1,1,5.275816001840132,7.200180589192874,17.50850125752682,12.852228384635895,15.133447626376817,15.929642884532404,5.503460914996203,3.490221034565524
1,1,5.645684545685055,7.355669675055286,15.131610345087147,13.617500110555692,14.510925259366177,13.964767224589338,5.0771968476597955,3.7095831655625364
1,1,6.385007232563,8.286273672661773,16.60118641377025,13.949863274064333,14.790852222532513,15.217848968185914,5.501044815376103,4.040922265150254
1,1,5.882185816824519,8.367385781300221,18.73966932628478,15.06450313781467,16.130584832401745,15.812994733645894,5.880120770128853,3.8811840180338217
1,1,6.140029460832822,8.810229836408247,19.448537904908214,14.636398644418588,16.833452862537325,15.580244177433833,5.725780937008405,4.171347644550462
1,1,6.4979409046400365,9.13595717875706,19.229803153752645,14.273504789163013,17.193335595490844,15.14153202753233,6.1464358266376955,3.8169033260998626
1,1,5.588520351306674,8.045204260461032,17.02401054041458,12.394578737206952,17.188067204699202,16.228960755677985,6.243861443335987,4.1829541600515405
1,1,5.078592558301332,7.160153171909561,17.29163381213916,11.57119342238365,17.26012263639683,15.418468665658123,6.846461327824603,4.300166597709033
1,1,5.49048566653084,6.675094964417429,17.520918841999297,11.38084551026829,19.071390405528188,16.412097620264834,6.653051486472871,3.8467227834537394
1,1,5.498868113734501,7.066739892935754,17.47119478098108,10.927209960953066,19.82345849728286,15.780191520177754,6.155735011791316,4.002749237849888
1,1,4.789938086832418,8.166119477124466,18.356212699182304,10.186808425833515,19.997208324862562,16.21007191397261,6.017252674660982,3.7593945379751696
1,1,5.127466475930066,7.711923632472547,18.061603875622033,10.313503568294957,21.75318189496768,19.07245461470656,6.422457470480438,4.105816118372762
1,1,5.250777519494507,8.39788517544455,17.14772290193355,11.168560709784597,21.14313031070064,16.52370578779217,5.774883238731682,4.494491165820059
1,1,5.3797442757761536,8.361802099322482,16.528589872551592,11.0284649036069,21.60642093819689,18.589440779929298,6.156510572929533,5.017318622190667
1,1,5.347921637523955,7.899355920732487,16.495395218148104,11.970868095904157,22.724300562829022,20.325091959744686,5.5784914416085245,4.545808458926257
1,1,4.423363588686686,7.099153681784677,17.000170817740543,11.151205879290963,22.092537010369963,20.577107420596207,4.769236395674082,4.021939917368734
1,1,4.2915518768523215,6.902569539062298,17.81508077713919,10.060330791017744,18.846882767336105,19.401292123683383,4.382410581590195,3.831776106236633
1,1,4.01836090476639,6.835196738911773,17.58795894514322,10.852465227972049,17.184400188052113,18.51482175199496,4.68189776851089,4.082080663464658
1,1,4.188891886908307,7.6847907258964465,18.659252048522223,10.63135364275054,17.53979344608738,17.557754031994484,4.917676287242801,3.7288524844967204
1,1,4.161465820296379,8.389510707611922,19.875228070741745,9.103444963830942,19.745562671609694,17.513646768094606,4.851106804516075,3.9882214821662125
1,1,4.408880088839919,7.9834902268199945,19.37506483595205,8.959935111946878,17.654511136273776,15.971415464147757,4.7231312582338845,3.927225544081439
1,1,4.257861598969444,7.589635520110339,17.422874374951018,8.69036716387798,18.191307452116714,16.528383534009684,4.41812121840344,3.969333255230035
1,1,4.1815206679122845,7.672716279806891,16.705773471595403,8.390945130042784,20.341644842904305,15.809940960816112,4.424460964438228,4.240677571064119
1,1,3.232082098248661,8.231385721050533,19.305627892108205,8.492375980653028,22.086169737594556,18.057859717769894,4.427784473733025,4.103233017045821
1,1,3.4937484841597253,8.704580114888232,20.606790712158766,9.406422273982914,18.636197170407062,18.04203699696401,4.603365616044112,4.385107365951287
1,1,2.8137031985060523,8.209227945373941,19.588234060023122,10.027945769072835,16.823631129577333,16.430830907263285,4.2689474956469,3.805198954725898
1,1,3.083474160387783,7.862024312109799,20.03338436304973,9.596638732701459,15.261346669889726,15.136691836701539,3.750958626498468,3.9537608037542964
1,1,3.342489948991382,8.456222582931161,20.541775345804524,10.57602858045963,16.14230963688288,16.385584649476776,3.7197090652107168,4.296001837472041
1,1,3.110569965926023,7.695503140591161,18.440523147186088,10.430888578915175,17.133759434264725,16.530237101439518,3.976856102619372,4.618090753124253
1,1,2.8819872919452934,7.853836727768052,19.25082002799703,9.081142096082214,17.6650370974316,15.699555694909199,3.981974810360323,4.167229219736974
1,1,2.99150253276115,7.382374690676449,19.880262655743643,8.493100701907274,16.70322877939973,16.90219210273594,3.836174231386809,4.309937823842462
1,1,2.8931070680445026,7.4761549848367395,18.628000607302063,8.769445186487525,16.617338969305376,16.14596086817678,3.9346499669067234,4.471737172042702
1,1,2.93613233159611,7.582956580945301,18.895144283836483,8.706288375911607,16.114409496945672,16.41863406916063,4.211058467618493,3.946542418332481
1,1,3.1096315550990004,7.956815451715765,19.838037874174844,8.625094714018802,16.335557070207408,16.199533516690355,4.488409699615157,4.083082965156286
1,1,3.083293649701198,8.488814688403567,22.16395124168509,8.932179242006107,17.006997890907332,17.018919149587326,4.11747005172431,4.314156379047425
1,1,3.250358696179764,8.840811003743116,22.420761076532646,9.014443322972637,16.00631170306025,18.04775174798274,4.438945545042023,4.651912834101937
1,1,3.1233131018339924,8.303875098304784,22.69322439087326,9.735631341728974,15.44665559130598,15.446352725500143,4.823908981927083,5.0816512226218045
1,2,4.474621182305507,7.611084218221803,21.62018785081715,9.632352218811075,17.24446326480573,18.30269550237255,4.270913659920502,3.738771634733088
1,2,4.942701405139161,8.866303139324742,24.0775684485375,9.534012283917933,18.37855651307303,19.260286028062996,4.165576155886417,4.184964867558973
1,2,4.871233527093503,8.295597235867948,22.923622416477137,9.811343814809277,18.335580313818166,20.585891240584516,4.3664774213808055,3.568283279165167
1,2,4.941694575255612,7.8113125981406,22.28787859921958,9.804111867523153,19.16126013237095,20.564136322006252,3.980527923943964,3.8409713027355985
1,2,4.3902854887804885,8.336611645336705,21.76701300811599,9.500194316071742,19.50569924962293,21.871067576036676,3.9983573705095545,3.6920091272646824
1,2,4.004830693565299,8.33402348332968,20.15819280898648,10.449758729006051,20.50642109068761,23.648996550583664,3.597667083535544,3.606703293517699
1,2,3.6744309447703585,7.944271173395576,19.079610600471295,10.830781138083854,19.97296761983262,24.823026344576153,3.8978384437319957,3.599650659906085
1,2,3.6121158635331083,8.25418214117892,19.887771768298414,10.713458353974701,21.876426488476582,25.686609939668216,4.133605571446078,3.358457199628792
1,2,3.5066386950694786,7.67848901203285,17.89194915542597,8.941710104960121,21.868816444834067,26.452529037449754,3.7808670660805173,3.229686844138135
1,2,3.2623204690537424,6.874387042651503,17.872871265815846,8.690004827595113,22.99695867930429,27.106651811831043,3.4379558024591117,3.1965907558724234
1,2,3.496442331380292,7.025104974466054,19.222464508411093,8.757680850220565,20.662716055521482,27.81826039567222,3.635703843378308,3.40107221802269
1,2,3.200014352542941,7.523136609549708,17.23376807256279,8.56600900620714,23.88939617673978,28.398234560316546,3.4976676857016433,3.209558775235396
1,2,3.1200315568663552,7.091090152924406,16.629862957021174,8.86881962475086,22.357899320465858,27.844186203712827,2.975492288392187,3.2222105501623948
1,2,2.9992841780168065,7.218761345314644,17.82913761312424,8.752721466982194,23.883916184100066,29.71007912214249,3.08619816278273,3.2325596838396544
1,2,3.0315730416488513,6.422635134740199,15.900622399402627,9.117089449690493,25.26569171248139,29.186577462646,3.252111001543807,2.752834043154533
1,2,3.091746632687213,7.0602245629409435,17.639709893425582,10.21761725058444,26.21559107867141,30.11547105273619,3.3078033475831607,2.7941807701116104
1,2,3.3009351831368337,6.382294317451532,17.363662238729614,10.042643093221912,26.242382177286323,30.13166428810655,3.390294714929359,2.9768116345963183
1,2,3.5573119368400685,5.792105548396459,17.40287770436632,10.731762064938051,25.6961840157571,28.45133373026113,3.5017059002532593,3.0567923170928095
1,2,3.9516914803563092,6.178251429545614,16.938544938111406,9.358563973777011,24.862571638780082,28.167541406466093,3.4903216154235825,3.306500746981166
1,2,3.6986456217279255,6.674819752271006,18.08072371793999,9.766587943051212,19.682918744795398,29.786044780657953,3.7020095975319154,3.425313844852413
1,2,3.487730696836684,7.0928426683898,18.318815821114246,11.249523433761548,20.99992671852999,31.143905543715395,3.4160979646443663,2.710017740593555
1,2,3.6699247776505475,7.6941540000013475,19.612521092918282,9.635545264363138,20.630474122520862,30.320789442507248,3.4837371860059307,2.766252613535469
1,2,3.5713504320550062,6.444537328747399,17.536947302724343,9.74710763607972,20.202259037505545,33.79478502874518,3.5706354186429876,3.01535088922555
1,2,3.5115527707432594,6.658230501008217,16.76333395782672,9.962860407359374,18.868449170564592,28.17520147305187,3.7909916262326324,3.2502174806264956
1,2,3.5039582780956606,7.126127983738498,17.06110429503992,10.348151668480437,18.35671169165774,29.138872505537908,3.481311752557183,3.106762546454321
1,2,3.3934349432150013,7.171996254480164,18.15780605680754,10.436805211585368,19.15731948808323,26.287507172008187,3.5063210740770447,3.074241155549376
1,2,3.186148371246537,7.432482910089519,18.21832880008926,10.00993923692575,19.43144243298991,28.931104436176383,3.7422730087632288,3.380907147950636
1,2,3.391856694721449,7.252738156387278,17.259733793178327,11.148002584709229,17.896071629989766,30.92210446060488,4.06541048623269,3.3079594213012458
1,2,3.2808373427044186,7.369546038461966,18.847066469540017,11.179242607608625,18.66747348808821,30.111124578265223,4.019842473853075,3.6628367736606595
1,2,3.056342394008673,7.238277612471504,19.525080311114895,11.142698527966077,16.326116579946085,24.32275847283424,3.6279994270236746,3.3347454572681374
1,2,3.218739836687499,7.019418503309931,19.32942503449097,10.950662368670914,16.982081453774786,25.188418647192922,3.391359730159469,3.4289486666389424
1,2,3.315844969184796,7.391167350870574,20.225014631743285,11.837983515125934,17.055047706174907,21.899277965852978,3.134407474820657,3.301987872496741
1,2,2.9818916870590386,7.494132007254388,20.387621752582234,11.746279358286158,18.2156087657047,21.35556565906271,3.1034882796861507,3.1462586164868713
1,2,3.063703853246339,7.516520682577198,22.29115010462285,12.452675979034229,19.389852295675848,21.633064809218364,2.8947176441882774,3.3106362035058012
1,2,3.3829233436373025,7.665900763263781,21.17996965914953,12.57931980860519,19.910755848275986,21.632233893435863,3.022464180003374,3.1831008708778605
1,2,3.405233791996346,8.026349835350484,22.272599930963455,13.308234553437915,17.893325556085035,23.303683028782192,2.921797881480793,2.9920801969010684
1,2,3.5904554055006863,8.433102517991856,22.213284507235965,12.969261670303725,18.618352435080347,22.78159163681894,2.812251483746887,3.2601407470312975
1,2,3.8216101500218227,8.115501958463502,22.59176011614876,11.98733940270464,19.381510889850052,20.429767982513457,2.857195359881981,3.1800956321147438
1,2,4.115251328955533,8.329528449583439,22.25807788842668,10.813375478932644,20.25739702465941,21.785830133888936,3.0926287437326114,3.157311131245592
1,2,4.0758935499983,8.624148993050364,22.676397095057897,9.996250401387615,21.740222172569023,20.208710607251806,2.9561310531972347,3.758560288299351
1,2,4.014486780037345,7.406357255369028,20.802047951644152,10.312032422831777,22.391137169359045,20.346006883767092,3.0360063921034306,3.6195098644407406
1,2,3.970292517219097,6.834067282464499,19.7268178666457,10.350735320194165,21.620502399980765,21.220063711966183,2.8926478040506862,3.432953281567933
1,2,4.063606363258848,7.379650054772679,21.164259565338817,9.638311082163824,21.621755397987762,20.122642650204867,2.8149866001572748,3.4530554266306437
1,2,4.228988661671817,7.255299196123071,21.19230615792068,9.347750462990284,19.319271944966864,22.477879516248628,2.7270906048629677,3.3082416474589027
1,2,4.801834288530149,7.247390056124996,20.726129942820076,10.303675070918596,20.556095745669328,18.924598434369553,2.6977076809531355,3.4715045084263507
1,2,4.506252116639388,7.6812927991604205,21.527429822557078,10.394538065359432,21.79595004361152,16.764800665939816,2.645949017217132,3.4886518087859413
1,2,4.664868847781344,8.153378678026575,21.145726884710523,9.559826490305356,21.54853017470948,17.62989768121741,2.8427827386818416,3.69173511672228
1,2,4.523679653575786,8.247075442112417,21.145508587627074,10.047286728324782,20.45378404132349,19.040963648216827,2.9071873067720557,3.479954166745308
1,2,4.792885340704541,8.865643703188132,22.836430923915042,9.889338030023593,20.31328552266214,19.5817800253732,3.0028920015998652,3.475727983700956
1,2,4.511546078511242,7.813344316166358,21.660975243641055,9.723478763032718,21.635113468075684,20.03778447082633,2.6871645094021845,3.3433026198504026
1,2,4.5977343276309295,8.456115217877946,23.560174310220305,9.999323945387934,21.214899319192032,18.93615280663435,2.786417117857264,3.3316377110526143
1,2,4.421173112765534,7.764367356720795,21.48067763948048,11.101910221047378,20.113250128674782,19.86556784525843,2.877325999349384,3.501799346608233
1,2,4.598441689331972,7.012009634633974,20.215006003211315,10.629041424465655,21.32484661894623,20.61732573557615,2.974886545557404,3.3976090963105174
1,2,4.898837622949649,7.615015857987916,21.788452765799825,10.76668674950637,20.664699781138985,17.965756566789132,3.0596641585983613,3.566799376922554
1,2,5.059754984774993,7.249325209714205,21.013084681104218,11.103317995354914,21.379401143269323,19.244775951863282,3.233852708576574,3.4605534170431302
1,2,4.545568166513616,7.356045936286082,22.06398947556021,11.632075704341245,22.20610463621902,18.17343141713214,3.519056198754991,3.7032572279560347
1,2,4.764019705322548,7.799035674395171,22.352670672626463,10.118651551189023,22.68035831705198,21.39812757222906,3.6793513542194014,3.704565205144739
1,2,4.4536039051782215,7.132178332688117,23.193537312710816,10.163453599736512,25.006789334976165,21.531917691324693,3.1704961597673775,3.53398237623234
1,2,4.512130828943186,7.5933234044938045,22.61978970583791,10.569120208380472,19.24783140274916,18.719920262051993,2.836453852992324,3.3624098472903934
1,2,4.735619784721929,8.743390192663199,22.859794119144695,10.547828791712718,16.988939555190456,18.312210794011484,3.083230806437382,3.294843350576932
1,2,4.824252934078692,8.445000864470272,22.68127420114383,10.573983389365553,18.229477623846872,18.36417458169368,2.90543367114616,3.332903246258164
1,2,4.794285225171549,9.07018525284092,24.230770041497053,10.52177604002597,19.56820623223171,19.992355587057173,2.98693108382078,3.438291698511699
1,2,5.066202341403643,9.582573117707383,27.001390698023876,11.373206005898991,19.932683147963832,22.198623506664138,3.373989518068301,3.6006034377998515
1,2,5.473374201189147,8.348980896857636,22.505289172358037,11.851549276828457,19.663549682856573,25.101430745935705,3.820946823600529,3.5676165410359975
1,2,5.6414398664171665,7.259373865944377,19.816372777936216,9.934032423847684,16.715858652012308,20.70383955913138,3.92037041592537,3.556090702271073
1,2,5.316922124905444,7.8481444809767495,20.377729455161244,10.692319376103375,17.733415914189017,17.404532544156595,4.369124216431938,3.7972780513262143
1,2,5.142092624488672,7.797470748730064,17.657808617474394,10.071863876862745,14.619722010212135,17.669343566366077,4.309718346840842,3.7284108622226912
1,2,5.517296908851961,8.432209545017033,18.458188825803582,10.113050501724898,15.760687727785736,18.19627256926689,4.198952431148409,3.4122826400763957
1,2,5.724884291953813,9.11351772348505,18.505535234815788,10.645833103051944,17.00854612032765,19.696065019739613,4.192327144835262,3.4261684527322296
1,2,5.166167859130603,8.408166543973696,18.3268781039073,10.205804100604363,18.553184644951656,20.781329835625282,3.7277891383646984,3.0499766388145066
1,2,5.800813926711144,9.043813856958083,19.579167845595443,11.716479555147112,14.021014466594215,21.200127122404187,4.064531693325233,3.3046791310611288
1,2,5.662491018083188,8.923629675542568,20.13890351618208,11.162919302206237,13.124912814328436,22.367544254196652,4.018649227107959,3.2810921469083505
1,2,4.601014725387514,8.350198833183091,20.23930294371974,9.979777680075948,13.41992589018819,23.705782740015678,4.058356443028079,3.330324033924408
1,2,4.518983185628007,8.473346413830168,19.229058724478488,10.228217515834608,14.349741159985797,25.002941038011333,4.14807465811928,3.381085834414423
1,2,4.340257579899361,8.684849660039825,20.47390286409041,11.22362888472699,14.123910291348933,23.360310442067725,3.795577881140069,3.52464552982361
1,2,4.3999671787209005,8.418203624810362,18.319964991266232,10.930840768579259,14.668974527778445,24.995018464616756,4.216046417516957,3.432475641060048
1,2,4.280659664923007,7.91801475755678,18.49414666622683,10.71383787324875,14.568567748105934,26.956558907451267,4.782296021695657,3.74100624636624
1,2,4.589831106658082,8.277652810450494,19.370759240032076,12.0151315587239,14.51004745734804,25.73782996745803,4.472885046551689,4.027643566327308
1,2,4.7400402871179015,9.051790770646356,21.44156534030146,11.8273863084159,13.901097122431812,22.668492357221,4.6581093059924354,4.316218466333127
1,2,4.778459775224927,8.47754415725528,20.560749053627813,10.459595887537985,12.477544422620374,23.880305701732468,4.415296749321616,3.908367872816798
1,2,4.698456344806276,8.223367463121555,21.335765167536458,10.659133734660418,12.592529144273799,22.299276965536123,4.02593615940069,3.831967699154562
1,2,5.003718567980471,8.068782725190198,19.830280642610756,10.311714908844726,12.548417424084608,19.14217785474928,3.9730790917253995,4.016015144398404
1,2,4.251934505336162,7.530894547329994,19.30449572230088,9.852079168539852,13.141744802472445,20.333652223967327,3.819483858296996,3.664013803972136
1,2,4.2974456293207925,7.7596452898040775,20.964329825707402,9.931966315947209,13.809461904866286,20.247844053351542,3.7024879319423896,3.4887212524171733
1,2,4.438279657147545,7.9051944914678325,22.009189639181294,10.284156225002503,14.047073194740035,18.755486023783337,3.902546724132643,3.7152249726897466
1,2,3.565553897119284,6.250903209793259,18.29828371641576,9.63256053306072,14.846966201181676,15.387160407712576,4.164017800210816,3.2232102755548935
1,2,3.5366702831716252,6.7380577387959,18.864764171748316,9.830945832747217,16.45337498842668,16.170860524143873,4.03631088485434,3.299470702487089
1,2,3.9123565611495996,7.683291645521235,21.629515230737574,10.020847364439083,13.27231323229887,16.427127822693134,4.264390864008972,3.2408389183880635
1,2,4.272447520250062,8.321157530115212,23.163354890133537,10.038873194506948,14.348502798362137,13.685674731892627,4.807840960766635,3.0205469905436564
1,2,3.4609274855507097,6.859159501971055,19.905074849526034,9.059121947833901,15.6762182308018,13.491092938088169,4.781302456872516,2.8379877101098225
1,2,3.652235455814803,6.372804154509307,18.610698879600914,9.399311700895154,14.178570652629183,12.958733622042168,4.82081759506645,2.7413873142017846
1,2,3.396482379817063,6.945556199872107,18.303765910271853,9.825190583487155,15.575209699804468,13.458886637935926,4.583031127049787,2.6034169553613906
1,2,3.683318523267501,6.60632717508398,19.213374137541024,10.30602050021557,16.9579527755324,13.902499104450925,4.715209259098135,2.496536778710362
1,2,3.7804872476803006,6.967305352744178,19.262102406870035,9.670946341248031,15.034438969681093,16.073418586778082,4.7268884435135945,2.7994389035131686
1,2,3.690631822551122,7.563267265320541,19.405798564290894,8.54030335919452,17.03143828765036,14.447141926576572,4.787394236357909,2.888140041150796
1,2,3.371085787510112,7.071289069840652,18.803288071023655,9.460533913413443,19.174994942211335,14.238552830333518,4.730401199859853,3.084230157004655
1,2,3.5161772309851336,7.553367054242611,21.228344571622188,10.725606288516142,18.315294635996196,14.943166892821111,4.958370590987362,3.0877656489091523
1,2,3.9196100127402786,7.881882406374048,20.079202563604284,9.491995804547201,20.430684040666552,15.837221871067864,4.81547462288214,3.0950041045958847
1,2,3.8427677029796135,7.7042894779793984,18.460902548890985,10.015300460645335,18.76778222734625,14.12830606645248,4.648867213188894,3.0242456361195593
1,2,4.331886766366315,8.510799274768607,19.636626639322447,10.027019888393689,18.785255329946477,12.850237175919009,4.887017083362723,3.1925341258873483
1,2,3.4474002556401713,8.23097648849256,19.368674840208325,10.012336324026506,20.849476010030962,12.344878643946414,4.741940828603858,2.878006024539665
1,2,4.104871696328088,7.778472520648772,19.8104389476056,10.349391105887097,19.62019944807451,13.753883108403471,5.96699940455456,3.243927566597712
1,2,4.395305346703112,8.185875954656236,22.03816428444673,9.687965852347297,19.891811249432358,15.199954975720562,5.496244019180477,3.66019742723487
1,2,4.42074339600562,7.694190645539334,20.68489967208388,9.11920470539171,20.318053962647667,14.266718832242885,5.451290795756108,3.713644779701293
1,2,4.489339175097799,8.349994613184085,22.28196239138843,10.122243505480016,21.345974895942373,14.19084554599105,5.475759936787312,3.9791372848672886
1,2,4.419312101135259,7.561274023300271,20.270788417581162,10.796146760406371,20.83008384550573,15.101829633285044,5.084419796029956,3.552951827725661
1,2,4.777041316226776,8.574659104279148,21.547361583306934,11.47467162462875,24.18464183210476,14.850525392910924,4.014140770721974,3.1923857141447898
1,2,4.3841781328519405,8.715712669105754,25.04529236756467,10.38382932757525,25.32763321553088,14.982404177946638,4.016838973243021,2.97199787706122
1,2,4.8893671501257865,7.917925400261431,21.120818524463953,10.293254433083282,26.13493105066594,16.083385431420478,4.6332564721843035,3.378447914052328
1,2,4.353160559957262,8.36588458749999,22.019047377777735,10.744452753560301,28.113926120668314,17.059591081349737,4.503109224618722,3.4640356513670665
1,2,4.732192305744711,8.0290335056796,21.79114890111491,9.954468353393093,28.152542309016592,17.45412448836657,3.8122291566957522,3.311027694406894
1,2,4.785539087714504,8.413908519830526,21.919672622060993,11.32207314447959,23.654399107452264,18.94143782197859,3.723042504515536,3.34632725072738
1,2,5.00039166665625,9.487905766658374,23.695311182960985,11.97241295242586,24.34260865222822,18.29986628776148,3.8399579490322036,3.6728881824452686
1,2,4.651527056983799,9.103357691193796,24.387488274872222,11.43483600235533,19.76019514878064,18.610239292075303,3.9773706251293484,2.910962340428154
1,2,4.590569547470067,9.479101932343674,23.71824957493271,12.898572249466909,22.09649603520587,18.23114841843702,4.175849171096755,3.111657783218039
1,2,5.081719295813633,9.092836942964306,20.596513320119897,12.874418293195827,18.819306254365927,14.080983218716751,4.213049685715575,3.1147502001588627
1,2,4.917970079910768,8.025867725503225,19.286263093615432,9.338719797887345,15.046627315477693,15.495381671109934,4.3571745715009875,3.1830880978360794
1,2,4.606865325250787,7.267473297624927,17.017260013627524,9.846975103054652,16.185971103225132,15.529524402125002,4.221005960312815,3.0179068807142326
1,2,4.57409412531001,7.262416096333198,18.79565040564855,9.12707269655248,14.88192296111715,17.700791006539948,4.507952135325331,3.176626455697131
1,2,4.568373175428329,7.5902807446674565,18.381384479378006,8.061480593887856,18.27947097733677,16.129171646231246,4.696275562225682,3.8136622299176453
1,2,3.946292570814634,7.804888207253636,19.86600542796905,8.21091971695848,17.77868810246522,17.407471614985884,5.00359285822114,4.249411937002038
1,2,4.057177343619326,7.909306091989553,20.25617168414678,9.344093241230334,18.90255772942773,17.173416495248684,4.488195075832268,3.790337878713052
1,2,4.228060134821464,6.988429052435843,18.79478137332481,9.305524289647892,18.950370557835,19.227445425365374,4.457385998386688,3.813888282683905
1,2,4.149469371915702,6.24098680456397,18.831553933906324,9.52921877550177,17.444342945791316,16.28395566371661,4.7728416525932085,4.2543580251204105
1,2,4.053972083862513,6.528170476997591,18.62166222496013,10.268728927548274,16.567543514140983,12.751371615316193,4.985703873757589,3.636303248443395
1,2,4.423750929596025,7.343388560880693,19.204024889461856,11.400839019067485,17.309957434595827,12.331786109175804,5.143327247055284,3.6620038099444385
1,2,4.109746847961302,6.468593433598312,19.277081318635055,10.86103058932978,19.684861058972974,13.288946341856441,5.057312351197485,3.4493183004859613
1,2,4.052473987286596,6.270048447933329,19.180775857668394,10.944180160453397,19.305171897385403,14.01781770599566,4.8316195593679785,3.0602075458679874
1,2,4.552578784761148,6.251796945496286,17.0208167638452,11.479359276632268,17.842103196231655,14.014623739239859,4.973435318862499,3.2210395336754605
1,2,4.637225939095813,6.2366304810710265,18.683177984757233,11.596245581472644,17.31891886002816,14.521019194308527,4.579308438194001,3.127027101420434
1,2,4.561292414227051,6.328365923135019,20.435010190877122,11.087105396405757,17.14019839451266,13.697130684932194,4.441229359896013,3.1721759666802187
1,2,4.582801467396487,6.767995915336032,20.503889592094325,12.42025620395334,16.97158328544927,13.9682483280504,4.626943294438006,3.047705562192749
1,2,4.953516545743611,7.822156620269919,20.519394702521858,11.900138624192365,16.339612526505658,14.966994430457488,4.28363457425472,3.310707874042416
1,2,3.8488004801018136,7.191861948162791,18.1596305361417,9.811314184331387,17.832658034220017,14.326522993222477,4.5871241561517415,3.4393363515959363
1,2,4.014930169785581,7.065830231424557,17.39638741037296,10.795370596776742,18.59460506466719,14.722940986800678,3.771896177121591,3.319984512772691
1,2,3.7688842578149684,6.916911483546928,17.860971724860132,10.673159156344248,19.03245063183645,15.922207865878637,3.8414532693885297,3.1462052761338213
1,2,3.697574210146494,6.462692400664234,18.420774837464087,10.937936483292958,18.85515352165404,16.747033765748803,3.727229910028801,2.9852007085769197
1,2,4.0396881328713246,6.414329236875763,16.62963363709008,10.097112289042078,19.24896989555278,15.27176464688979,3.927384355390665,3.322318093162695
1,2,3.717378508241226,6.5170403044212435,16.57231932507947,11.111227775651438,21.625547350870526,17.25740014937381,3.5725942880369983,3.0393811678657983
1,2,3.8710277009228258,7.0916493473736395,17.934122043579006,10.133464681502529,16.77286779224317,18.044738913336108,3.7371945709115773,3.3970409549304845
1,2,4.01221528147057,7.140501723940195,16.181932338219166,11.488681569833412,15.757885395548652,18.649848457797834,3.8528319862713047,3.160504886162397
1,2,4.08094853561297,6.586441630886992,15.78900816570174,10.959002120097924,16.17455777507479,19.305527237448807,4.2850129914498805,3.625918877565778
2,0,6.378847934320863,7.05697585344456,13.93365410884735,9.677729204758705,17.047665629500298,28.941228371358925,8.763322445255223,5.673110865307454
2,0,7.059230589902413,7.455293157107967,13.454545138986965,8.367037093210334,16.41938394538783,30.6708779143628,9.232545444577397,5.913929814818572
2,0,7.533725654733501,8.623059614987278,15.880912751339423,9.488626616591086,17.00249475322824,35.45935837329142,8.702415841843292,6.701238727592717
2,0,6.398503405200991,6.60294829537159,14.693898765926932,10.167544481555538,18.728532279291215,38.94780991880074,8.292810394369374,6.056690947282991
2,0,6.878857762812184,7.429882457744934,14.498932360485531,11.261163766566256,17.88861272322226,40.243486700543755,9.200113624729866,6.4987161590675955
2,0,8.159602838764405,7.8183686652128435,14.4646937379731,9.624204079282556,19.26633120041838,34.61255145513166,9.37720157243716,6.502850020467921
2,0,7.858382898931897,8.395772050652583,14.787780584162837,8.863116401943122,17.777282235153237,33.20063147359957,9.370555652991868,6.463818642221975
2,0,8.420106656580607,9.041934689223483,14.406236722907593,9.003397900008304,19.312795269269294,32.34583641826542,9.8775352001128,7.267828078964672
2,0,8.249776478413438,8.978834469922349,14.820387710327562,9.784768758032444,20.151344802717972,27.599905411256632,9.437652060641403,7.47479333340088
2,0,8.898259434983954,9.364670651625449,15.632937981249054,10.802608746698542,20.384120942599132,31.217535400786005,9.008869778452377,7.940353836973106
2,0,9.84422739288857,9.42458120714784,15.763231794342465,11.143800412791204,20.73487926081947,28.309190826658494,7.878957191169707,8.421462439662466
2,0,7.340053758592359,9.450127024748815,18.810163163511255,10.981364554069517,22.075768249512695,34.417788043191614,8.886405911008474,7.493799700629465
2,0,6.051049801569343,9.231435511813336,18.107960668817704,13.0189800722045,22.008497755931995,32.161208230515726,8.483351640539137,6.412795224006525
2,0,6.254024134506793,9.186638548514443,18.267323114592955,11.082985755834024,19.710629507220492,27.45922345421409,7.80598914124753,6.0879709125800066
2,0,4.447044398178632,7.614173269973886,17.54879245065359,10.161762839938227,18.067563927379656,27.7724887368237,8.987161222072029,6.713743624113386
2,0,4.47513046262719,8.644503341838087,18.7084085775292,11.507953357633742,17.017555619003474,26.35252093031742,9.626191132811856,6.812291969944844
2,0,3.7329976625977306,8.258588139429506,18.72767674389205,8.014942261105544,17.433599477055086,27.691786202274116,8.813974072870733,7.276408655866205
2,0,3.6953482292227977,8.775472309142815,18.901246219540027,9.111660845557022,17.419582996798532,27.90766035555247,8.045450289274317,4.551340450567326
2,0,4.042190079607325,7.562050892430577,16.055242488723188,9.777394938492108,16.94608673802954,23.460648285576532,6.9155644677980534,5.339353610807587
2,0,3.7438836746940587,7.502675598040887,15.403882726218479,8.834420106403348,16.936765353348918,24.84898817253063,7.172080015427691,4.898223493579297
2,0,4.237579318645287,8.261221349178143,17.313509284978604,7.142895462846078,19.368280050699852,24.225086043493516,7.532380578273196,5.354343256923753
2,0,4.4167295643150775,8.840166538079018,18.32117691518962,7.463126324713805,19.038449208992095,25.113431963342403,7.252889971200593,4.008446635652701
2,0,3.7967528758173237,9.63442331626144,19.303582450527706,8.401903553628983,21.760726113704273,26.690936763675165,7.293527583388229,4.1967331557425664
2,0,4.027482665212085,9.346414341270194,19.138667860932514,8.004546051816712,22.60160052766309,26.99255484219557,7.526824037874289,4.768516853857629
2,0,5.319850940512566,9.58259925128952,21.57438835412611,10.113927779443745,17.720064693639788,25.747739396516554,8.16467606690913,5.332178499527483
2,0,5.031186422560861,9.595492354954441,23.304833145724487,11.794753318519794,16.78752705655751,28.115634103432743,7.406978942551014,5.4283876735530345
2,0,5.11194425747358,9.231304794704037,22.78052498653888,10.292890991923707,17.229586046458763,28.021074674176717,7.353052545972606,5.777771916400068
2,0,5.083830293231865,9.717666366576207,25.706401368997106,9.6539850515341,15.387685773533999,27.396145689825065,6.784580535907745,6.420848222492546
2,0,5.217116080276232,9.002994296328302,27.770106430141375,9.948567436633036,16.171420999705433,24.13745611427138,6.25053570825513,5.609298201832411
2,0,5.591583301492173,8.68858630720785,27.41006879964495,11.305483308780017,15.770983047978564,21.4475510093217,5.4852124946738225,5.379740146413485
2,0,5.874789024072652,8.789828716900555,26.61000224976038,10.756202472418558,17.727101666383643,22.145759510890617,6.166335450171785,5.0988107904204005
2,0,6.073091861690262,10.25078287662569,29.26405262652038,12.436052188937666,16.03671870227721,23.254319253398652,7.043970696445733,5.173924572764978
2,0,6.118886556644275,9.119028645132882,24.63219961420612,10.358751650312465,16.951730433526883,25.763706707560836,6.582986992674439,5.8292571533174655
2,0,6.469443469951955,8.673309637735336,19.89043804494845,9.385431594811044,19.07485474337548,24.399275526260194,7.094757090837018,6.274994255915938
2,0,6.747064676864271,9.352329295676558,21.660582184759487,8.797858365871862,18.369979255541686,23.486942638382523,7.43473320194597,6.885159507988591
2,0,6.445517005014361,9.580478261000726,23.19596368461947,9.249957041614845,16.167406786991194,24.678026182758856,6.447171231161172,6.996626814156024
2,0,5.480353150240092,9.968545794964614,21.487483837350585,9.230974966926153,17.862244468777245,24.08540533239486,6.556091128220529,6.848452085521493
2,0,6.059194372307504,8.731713791786051,18.126980088331255,9.778163120477577,18.281885304330707,25.038629512871314,6.00998035125057,7.331224975104176
2,0,6.411162032504854,7.49610222618638,16.139093893190392,9.849519967398843,17.760825060737893,23.72450008302309,5.867185361591382,6.9674508585676875
2,0,6.3163597512914516,7.582533350409219,18.529061282443138,10.281863903245158,17.46261202262962,21.867576525697693,6.553862187093317,7.25898805874031
2,0,6.4268792760314115,7.4426559498353555,15.530012494610872,9.473363348652299,16.79645638565525,23.85183548734133,7.617646159622916,7.4162329939823675
2,0,6.516980760779262,6.828380643817123,16.640831054311224,9.841617610677705,20.10017416293992,27.46681096585238,8.477539650465864,7.523014395217476
2,0,7.6183931467287165,7.959192316831586,15.650274831637093,11.030699895097394,20.560241629286434,28.122572707032777,8.507608879498845,7.334836514785699
2,0,7.145183355217536,7.7661534454824395,17.443805074902286,10.191916271790392,22.969360393172263,25.819014148127703,8.09577551122259,8.09404855253746
2,0,6.264965610884679,5.9772208192376315,16.239830572903895,9.650267302504082,20.813060250864186,25.067093326242354,7.0966993487969745,7.530948579474637
2,0,5.821987686658643,6.183463904045435,17.71768415086141,9.72096508582011,19.356182601027985,24.176066133892725,6.763262341639161,7.802061269103071
2,0,6.379604047215216,5.522360224262712,16.93737891014745,10.61485837929436,21.021942159956065,22.607123535228492,6.926902374083028,7.448006754960484
2,0,5.524609920119095,6.100000793802531,18.499389431154324,10.954706618343286,20.29590400542168,24.535296397921236,6.993553931839879,8.154615195744643
2,0,5.081574153199058,5.3450170650787925,19.081910294689944,11.993648500785854,22.203906379813223,25.785546577900313,7.529200189358156,8.320545074846285
2,0,5.910295137842537,5.593450849841156,17.6334704796322,12.703653423979704,24.029811076473813,24.481640484250978,8.378462703148319,8.510504466366337
2,0,5.930976044548591,6.323218080833242,18.639984870791665,12.885553787773269,26.329044162088486,25.21297244514262,8.07040071797119,8.572125880271468
2,0,6.029899742342649,6.317610834088169,19.46772732806863,14.657522911343097,27.107436321457385,23.01680784246298,9.177944061747132,9.770704553727196
2,0,5.941990431337278,6.227722895638582,21.233963083215745,14.566257395582678,25.061704103682874,24.2497343401777,8.630873032632175,9.722110088614935
2,0,6.224466459711816,7.307010610058997,24.096097091485607,14.84507077738348,25.067654768602413,22.088844232100364,7.8615856184090385,9.926955507813997
2,0,7.085545949911442,7.572288625536142,21.36364090384528,12.92825258552934,24.22420076385193,25.03316798384508,7.39310004896679,8.60734958744168
2,0,7.228332209089718,8.231069957177816,22.920839712077438,14.234619355948093,24.131744633655323,22.772716410672462,8.073859884501259,8.098928746654943
2,0,5.919633087253905,6.328809752464603,21.38875931390832,14.185364704550533,21.990777698702814,25.646053657245815,8.062749146670846,7.706289801516885
2,0,6.405471583897971,6.690462291030609,22.056607081231892,12.822523690865852,20.462018907110856,26.505380112127764,6.8399712283010405,8.149173292916613
2,0,5.864655129912022,5.296185001895913,21.6902946035798,13.853893800111111,21.395030508518996,25.29490014152638,7.32786796817987,8.252614044439566
2,0,6.0756024487129325,5.524097756600951,20.594293744526013,12.26221021191782,21.059541980429593,24.7790349702309,8.040366304924962,8.444373131328552
2,0,6.326550110102405,5.948152239579008,22.657812839050127,13.311488892206688,22.800645982763363,26.014047672802306,7.945589466011603,8.265568007124035
2,0,7.949271495936054,6.689540479082949,17.54875033048014,11.53915446834201,24.09676665047161,21.71201525941907,7.702671984946314,8.221836979011268
2,0,8.898432272302674,6.817755287287416,18.40060716713831,11.21812711381317,25.073282800886417,19.7839009730395,8.452981058097699,9.038223315950063
2,0,7.385894654903276,8.178563309700492,20.274336184686867,13.160575583991113,24.49224411089729,17.460237143065786,7.51199550810337,7.891938682658305
2,0,7.522185205344708,7.145942371383652,19.031984202081137,13.084037606275835,21.111460482593635,16.77672503364275,7.656426055349464,7.680010595812718
2,0,7.954118244238596,6.883672775855795,15.77693159925135,12.173730256752377,21.830039515456274,18.340322912927498,7.803975516048147,6.926837517957542
2,0,7.655219889457975,7.327119590910238,17.578859946820756,11.188166291915838,25.222140437689404,18.60389419945953,8.131490987563092,7.509269514010009
2,0,7.143070043786467,7.407662341049561,16.873966149429506,11.09251249403297,21.895802148010773,17.986664598943214,8.90434787547185,8.650207678246224
2,0,6.463250025026907,7.656235712927,18.056083221828736,10.731806469434055,21.703510089438208,18.916581707786015,9.452351399990798,8.969111059251178
2,0,7.271899634262827,8.519191219713965,19.001632821414763,10.289900206135615,21.80403149126425,18.415176078560815,9.617491796067005,8.769381153800357
2,0,8.080227709325666,8.641557473626127,18.103517991339494,10.94832820569538,17.954414302400217,19.28479746304936,8.409618389661542,8.267847088702894
2,0,8.47142854024757,7.9213383895803,14.894032982465575,11.205819714035764,19.89730735703406,19.544642341196447,9.650629621395739,6.533951092408859
2,0,6.075959692253866,8.870342656335348,19.68359750744336,13.70247620491146,17.806604431940986,24.121934133596167,8.733711761474945,7.751465410299972
2,0,6.407962883506415,9.845294967455992,18.94969845204337,13.578747440111506,14.350082140442737,20.939872501096875,9.242188489576732,7.6771931322968765
2,0,6.548660172082876,10.7582896902185,19.024715234692064,13.181863529283534,16.06172985753917,21.98774421202576,9.154437699801285,7.985895148103097
2,0,7.230356559128235,10.793012501376525,18.039689957420688,12.572744895762357,17.873312200411704,22.974209041133054,7.376756371572578,8.411720090433839
2,0,7.43066184752625,10.041179324595111,18.557731162751622,12.782750209712999,17.04578217984526,25.284504672500468,7.829866992625908,7.164900307657302
2,0,7.043982885957533,9.151435911501032,18.647236750811583,12.290685243176723,16.84563831893141,25.392411519566213,7.784116616353632,8.058644488123226
2,0,7.846701015589806,8.692775026034651,16.55988897925969,12.403298461009111,16.443015823980105,25.096648963401105,8.512381413300433,7.990849453175746
2,0,8.187443377126359,9.391383455096483,17.135906018501075,12.413031058525737,16.831016606364056,23.49206010619871,8.405482923989396,7.673173452112837
2,0,9.06748817369295,10.268649477032586,18.32747763219438,13.556568131368888,16.415775567697338,25.055319053122236,6.446662328941321,7.5939203056829605
2,0,7.492966693169051,10.098164103527651,16.889921998600865,13.016560584710755,16.803421156538352,28.731579967874207,6.676554270640174,8.229700523850601
2,0,7.647464841814371,10.262734239866093,17.65421995247161,12.63149262063902,17.9178529423636,25.68613489546406,6.306476610228923,8.946440775983046
2,0,7.493871018476655,10.99800713291641,19.982092978257192,12.628831026784695,18.182798398625767,27.239300069145493,6.995132544366345,9.752401265003792
2,0,6.3580354003305715,9.134185820387689,20.620777000136332,13.873172195519574,19.854732108591964,23.368988520320862,6.034392897009421,9.190158378992534
2,0,4.722828996044592,8.516604894527024,21.75636032977323,14.231643370295942,21.439940835332596,19.91622489170325,7.181959310219418,9.070934467219582
2,0,5.220326459674959,8.438825443885715,23.80521226272828,10.516308565010657,17.399830676135323,20.90408524982866,6.337556289272827,7.446904081032002
2,0,5.5516324677569,9.521969612689567,21.796985899631306,10.862002847409467,18.629118474347244,19.998501035215753,6.972438678718273,8.400581142047882
2,0,6.3303737392468555,10.185468729006734,19.88643596428296,12.58698314231352,19.2695976467976,22.116841236535404,7.623634440078429,7.3319485580309784
2,0,5.779244401102678,9.04725507579145,20.540635486820786,12.767632358028342,20.47921926095236,22.221385629680295,7.6048892733502775,7.108946240751779
2,0,6.391934907794376,8.59470582624571,19.64706129342965,12.450099856107236,17.86011558863114,22.735485968368064,7.709912272074724,7.135314898098418
2,0,6.257729358124139,9.080480215766306,16.431555023366506,14.303575689438256,15.493986097033973,23.914790210462606,7.454713658869554,7.992993259538398
2,0,6.688051805740414,9.067831614807762,16.426683127860958,14.778448682928554,15.152135610951715,25.007503926842446,6.970162949351625,8.112255274744133
2,0,6.339222227519203,9.58066799768207,18.935823899966007,13.806515477554843,15.457866227844837,24.93317679736174,8.04805851637109,9.412080985382
2,0,5.246504338932956,8.519524455598102,21.696428770664497,12.551866106291566,16.386078691828676,28.773356701179964,7.885393182578146,8.650969404238154
2,0,5.1898024652707,8.839777425348228,20.775418346290284,13.48340926651456,14.669590555948501,30.994420612170188,8.171935457536355,9.28114671200553
2,0,5.366298195739882,8.428365536862692,18.727076766400657,13.489540696836269,14.820293889253767,23.862966325098608,8.470980570998066,10.222853046650108
2,0,5.6256508864279375,8.93018788775789,20.06855048254373,13.56509332855937,14.857270637830185,23.375915431471448,8.327247401681047,8.415461568100135
2,0,6.148169021655176,8.730722162349121,19.856448014304604,13.26417446311385,14.8611381652389,21.382271063336898,8.486714239235141,7.6537836589556845
2,0,6.507465549874366,9.305299812405314,19.98336102435074,11.779320106599588,14.937753463110116,22.03414657680264,8.227408952301024,7.854275858450117
2,0,6.410594322949181,9.208719277231479,17.067590464132103,14.07065605266454,17.17393887721794,20.64691436524565,7.356718588274993,8.822437559221711
2,0,6.488625561520576,8.653964069189115,17.822842034404882,14.458110728168968,18.432000109750376,22.28325071985737,8.247621563349721,8.380380316934104
2,0,6.706290021049176,8.681284897567588,18.288070776312715,16.574316830773085,19.06766327721461,21.729304827143313,8.063316965702825,7.734747644041327
2,0,7.195872856448053,9.398450295898533,19.175175652668745,14.355748881305798,17.396007229560333,21.433866950065163,6.700925300213538,8.093638190431266
2,0,7.758964997262399,11.551343634060295,24.890030044072443,15.008766514178694,18.151402085401948,23.665421453298187,7.789037432978128,7.535875938710204
2,1,5.967952251095307,13.559137561279924,25.046109104162184,14.323025654496861,26.9528889749598,29.921713726957673,9.017894782625552,6.471968854499515
2,1,5.759835747408836,11.170720893765566,26.48652262950217,14.210165645783526,22.747138199043178,38.2490424856783,9.69793843436119,5.367905065687219
2,1,6.356134392832641,11.145621708590626,27.489027725920984,11.489644202949089,23.78075445173265,30.806803069752945,9.404642992456422,5.6836504395021
2,1,6.053071047446286,10.888983843355081,26.992300643167535,12.282456990360881,21.049332891163104,33.42420251402812,10.258752581911846,5.38683195769991
2,1,6.226214477360217,11.17432451280831,27.346947136772993,9.971104101860348,23.9054167742555,31.491046444002123,11.025884913791757,6.115968578135744
2,1,5.776625232779838,9.489266950832727,28.018023984050473,11.527693559365186,24.151961516404047,29.05207770032041,11.096219970144839,5.9193804042769465
2,1,5.2006500126537905,11.063161453749931,26.46883370564428,11.395396115959691,28.382201770545148,27.893876567836827,10.984917869253353,5.5938864959657435
2,1,4.802287795460781,11.385855248107477,24.441929391368447,10.716959963643717,26.51478878342829,27.449521162817874,11.918295156667478,5.576193913109258
2,1,4.736806526503532,12.306570074718493,23.539420340512404,10.816838488914286,26.759142289813354,30.00230115610569,12.665779286015574,5.067592628035343
2,1,5.397507254836741,11.753081041796584,25.489554498648022,12.026994115230899,28.183739743755954,28.43008794380184,14.616019731376676,5.142666122652679
2,1,5.4283248651090785,12.441122949863397,25.21146800489489,12.018771947831462,25.452428094731005,24.113657094702404,14.097000923395614,5.162845539375589
2,1,5.477198079509994,12.844805033791923,26.41045392909951,13.126854861496227,19.553855601148108,24.29221585689401,12.130225574355633,6.040833472270889
2,1,5.503256430132768,13.425062153922264,27.307800670448533,13.932880238581285,18.441419257907473,23.149212096785657,11.09487048207986,6.330501470171134
2,1,5.040827407410363,12.967755643640592,31.118565036512873,15.747893255340484,19.317793078460323,21.06225519354629,11.303298802018945,5.980159684710808
2,1,5.285953779515206,13.722579179571978,35.23562637538991,17.803261643606362,20.589398374277117,22.91467923409878,10.568343355934243,5.080177526838848
2,1,6.031138804633746,12.310496463350798,33.091053173483076,18.142203345782654,21.529446943810335,20.4490064711775,10.192076044854517,4.847242587594565
2,1,5.364565853693976,13.333256665970023,32.63284439607285,17.491706594912333,23.204403401412524,21.448376628875774,10.957045644788513,5.470187554894584
2,1,5.240051551816272,13.326097753174936,32.345813215855806,19.208057329255922,26.082323692585412,19.785414760950413,11.486750004665527,5.423797874660474
2,1,5.1996141594750656,13.32809480215423,33.44602856714443,17.895566614110894,24.67460395740687,21.26681672470668,10.908222258001365,6.031415187090975
2,1,5.38118463678554,13.128799942561775,34.984268604848815,18.458858046338054,25.79557184628393,19.926166489035833,11.714663900202574,6.226209153305969
2,1,5.700153829527019,13.847880742530721,37.376652006256926,16.29686686479227,24.79601545460442,20.053677429521517,11.190034420842782,5.92264078899162
2,1,5.461567147537626,14.602745508450706,39.81187774794121,17.528758233748412,23.943454326841824,17.740626244857502,12.539424560740235,6.760536837980096
2,1,4.902716151359948,12.46963326200147,37.9349968214097,18.472833098378462,22.60720024020986,17.752378458376775,12.54280050690293,6.740819489734641
2,1,5.067810481599575,12.950216741287191,37.01222246498212,17.31509105046573,21.15844233629019,19.28402209787359,12.90845934330785,6.750362231662294
2,1,5.407719732747924,13.876339706225439,39.53674846745674,17.04222660783564,21.82470012648185,19.069544465220133,12.992844077082832,6.6704454769573625
2,1,5.624904810133843,14.258700800121176,40.67644902694599,17.2495066583583,20.04048100854945,20.65905271862837,13.93439106761989,7.021503957323928
2,1,6.068188800214391,14.522785174140546,40.75755095040373,17.653447896810935,20.490626770167673,22.356961337621218,14.202288214782604,8.034701289708496
2,1,5.816338719667029,15.480538994027555,40.02910128253003,17.47108533011568,21.321915082018652,22.862382387181437,12.478328099034888,7.553837492508117
2,1,5.75959532196917,16.67130322179735,43.42182144619739,14.691268185085681,21.582475232744155,23.326196574752835,12.64999815355335,7.09749659205376
2,1,5.618387485561981,17.214168664902996,43.14150916387565,15.089148402051746,22.714698025018894,24.358899509197407,12.886112468628152,7.015404721990156
2,1,5.827655173883118,14.174816117468934,37.54336814203799,13.593634489008133,21.409805036162176,25.71124589736777,12.356130910910286,6.621733339506408
2,1,7.548106189573499,15.620550776442284,37.10147056829483,13.756865946338452,25.851780614320504,29.376067470266868,11.263085039835062,5.959433070243486
2,1,6.542830043644755,13.459189555679284,30.712312940183498,15.45494565585426,28.857116028224446,28.270690504710956,11.815136099990958,5.436349206174439
2,1,5.7683092598776025,11.068233231327154,27.42823930950457,12.29174989166015,28.673332597044816,30.960044625468218,11.195949994534256,5.8184069950544135
2,1,5.436204402014735,9.8371487562121,25.871605152432497,11.569030070102212,31.575903890765712,29.323675404027895,11.652255136832494,6.313530619010858
2,1,5.696219938029704,11.267152616921578,23.330992612695653,11.255873237690299,26.910662745234387,28.403103630065925,12.491952274300084,6.729108479276541
2,1,5.273859483331108,8.96636182408977,21.949131600065265,12.189831334507959,28.11956638607686,23.07764596144358,14.458732977759695,6.276662650988261
2,1,5.190192346810012,9.589763027829624,20.711552954946374,13.976857152602062,28.495676418648483,25.08630652147299,15.070482119085302,5.073183723049556
2,1,4.547855665602081,9.7102345275558,23.387161584343087,14.502466696701937,25.707486079483736,25.5425876648802,12.871527376438973,5.28677075858512
2,1,4.860625610015393,9.885329769304978,21.459447618656494,14.821827912378533,31.606702694183063,26.92312886467942,12.922852363225628,5.689498409312995
2,1,5.333370417217659,10.019886696558569,24.127420846011546,14.376301859978696,24.282708378266474,24.609053886205945,14.605001789818091,5.731999352505842
2,1,5.438540905322276,9.676191621996677,20.245797138442775,13.859735018963597,26.531072996067543,26.297633772132105,12.71443433691288,5.334182040187498
2,1,5.7645734913618805,9.930630386743786,22.362558018102725,13.956030106743821,27.190473565898124,29.06851905984234,11.995903314629727,5.438236111023566
2,1,6.881370388563353,12.37044162904307,26.555658613983265,14.017683038755488,21.917434588719054,28.2899171214209,12.989357098166213,5.865826927532212
2,1,7.802349731388604,13.370199067748084,29.427352787155712,16.185036508501046,21.67066076884875,25.93053034838409,14.906519370399156,6.515845851799649
2,1,5.258283898102494,10.91729758994909,32.81263857697874,15.294802676417714,23.285349623814064,29.104436012872682,14.726183259928057,7.940989377738483
2,1,5.421944460382019,11.133407123286974,32.446118190216616,12.593442180083692,26.27979082319359,29.26217147891909,14.320670787386563,7.178970140859821
2,1,5.221009976603922,12.12263792933231,28.63160854435835,13.40300659789369,23.252752334419938,29.75335216957266,14.23611789368505,7.4997589469284325
2,1,4.236531470912869,11.001526303344557,27.26435482751042,16.351203353673075,25.69418622633928,23.606397294836864,11.268291109812973,6.454987830451195
2,1,4.817749326010074,9.876573058931779,25.923585758234445,15.242585484643397,20.791419383891572,23.71333347084758,14.05859303961391,5.612541771614367
2,1,5.731022315812784,11.160821085555261,30.686765740248376,15.05361424727131,22.4985305544025,26.955521016791256,15.468471412774386,6.058710968974819
2,1,4.883537585655116,10.845896852382939,30.518009951489137,15.376626180178064,18.92854091664924,24.166892805684657,15.203282992196337,5.721429293909709
2,1,4.460626436975335,11.774123041941337,34.01029119169214,16.396205335656095,20.37337291854707,22.75717948491758,16.25844132029247,6.36796239494328
2,1,4.673619127845576,13.691971640901977,37.187098975355134,14.682507315820976,24.02890386791928,23.197261474253175,12.374168756736548,6.440878783993255
2,1,5.728320122264767,14.218588108701327,31.961322005627515,14.914564106725983,25.195592698636812,22.483712887303682,13.145781079053382,6.541025147650626
2,1,5.32529304820511,13.544984914523425,29.408486333961722,14.136068372877213,22.11300391772918,22.419567263505844,10.137916796284683,6.3850504506518515
2,1,6.291654329655465,14.832092760685049,30.839518398358134,14.989069330458733,18.29166174195666,20.55613379946306,8.599013794048581,5.6673462686333185
2,1,5.928445145605776,12.74267594374859,30.922261200911827,13.976430317728893,19.86063199932922,22.3443262385425,9.329589912169814,6.526430301518648
2,1,6.465106612704682,9.909705388053053,24.874690811996313,12.915935578091593,19.284084343948933,24.357842154159258,9.228364316267239,5.533507748291229
2,1,6.173007768238357,9.883633583476419,26.2588315598864,12.874047996521083,21.787097024493665,27.658669992140666,7.660237773126341,4.790758302643069
2,1,6.941147974020806,10.054530887987095,25.540959799643428,12.395397290310397,18.814018260028575,23.773841418605496,7.6878408834415435,5.198717425974499
2,1,6.8359854254578165,11.69885565893317,28.159392848903266,14.203632509719148,18.07646965510796,25.941316321574103,8.355449437825676,4.982996616814337
2,1,7.271860308186359,11.85555552640941,23.02838963978324,13.197655221204565,17.884471494581856,23.58218871342289,8.85834440679062,5.07624012937498
2,1,5.413213802260407,11.098558171548325,27.132201143832333,12.51042085145894,18.45598220475326,26.35162355808625,7.259096810768587,4.2095143501445484
2,1,5.844283858247309,12.16882894705474,27.96902432680078,13.987879156283427,20.084772490965133,24.569692712705304,7.294196333506839,4.602911750508121
2,1,6.270315249063931,10.71181820977633,23.960597291536008,12.731388418009743,21.347258173409312,22.994115763212392,6.394247345797229,5.07607683746229
2,1,6.476939180166544,9.387032646898207,20.17933477133484,11.91991458154997,19.189961132630717,25.690428277402123,7.068680241356936,5.104853340932661
2,1,6.231678125434304,9.503812091020606,19.349513705958113,11.432964809762083,18.102285528203996,26.820787707137857,6.714545259211889,4.687969040181069
2,1,6.384973245880496,9.549186488556531,21.29357499636577,10.415568041334081,19.33462835635097,29.197591829740077,6.881303142020188,4.903312972614887
2,1,6.702168801038041,10.859782947710094,23.22519944179922,12.064581197034622,18.74256881807553,29.313668933187415,7.369460106130918,5.216981731548862
2,1,5.5290258006066795,11.719610477848002,24.637321683921243,13.295048290717714,18.592610240182374,26.27921117409218,8.82364256350274,5.305190350226528
2,1,5.727333978581757,10.11207328097755,20.113892078509714,10.558970295406978,20.457353241649756,22.172816786016483,8.991567221253423,5.508854228389271
2,1,6.457876019598689,11.746642549405315,22.50702081699603,11.57923225474483,20.612784642139953,25.127912904486607,9.543488033461811,5.261813641683404
2,1,5.32889949785387,12.267371849958424,27.70299400609523,12.254025553006183,21.57335403268114,25.971476675798094,8.79267396906186,4.575285879996778
2,1,5.067922776523098,13.600347794588588,22.637052880781035,13.961241244887065,22.92820175093547,24.086334007199724,9.19015105710282,5.103012474261309
2,1,5.484192082215623,12.768476424914288,22.355719208571653,15.084663385737763,24.881027100964538,27.45509662526484,8.600246304264225,5.209802485822914
2,1,3.942504533267947,9.895682383264388,23.094855806501656,16.012047794554277,25.28042346208036,26.278323613275006,7.382562673763195,4.820813357916668
2,1,3.702135922302178,10.951914680593411,26.280447906927154,16.316679308455964,24.627937590952587,31.03484195916744,7.083435093724043,3.961976611703051
2,1,4.014777084272739,12.160747708533238,27.06073521093451,15.592145417890274,24.567226722309975,24.996419530650062,7.393493997299771,4.426931933348246
2,1,3.518384401111476,10.52358366193298,22.816728714726345,15.19317325383358,21.191119901171213,28.414619214238087,8.771423400521572,4.809344224865146
2,1,3.5007812977538824,9.666467033121474,19.822987844537256,12.576119287114237,21.87530491585343,29.322089050435448,8.30888423594985,5.421432870584191
2,1,4.304196110596712,9.524368230564844,17.915510864356072,15.163796624973642,18.680552716707563,23.7411073313062,8.410434141462732,5.740129430125836
2,1,4.807421390683414,9.92239774503208,18.861377141073707,17.520629661288385,18.253688198761687,21.29395438145798,9.771783827525402,6.6450102906330235
2,1,5.448136794083872,11.093553904528692,21.804246906325943,17.013417511947328,20.018025117751737,22.442957772694513,10.68069685764111,7.177076980410983
2,1,4.5301318497478125,10.683959595815901,23.954885024261294,15.947196512615392,19.63848306069015,24.942068851827372,12.061724470910855,8.062564608344507
2,1,4.453053374859568,12.279974616546468,26.753585589251735,17.71253336465441,18.794922454840545,21.707686067564833,9.099059075822055,7.801618142088163
2,1,4.346194840882055,13.12803597998025,27.235691527196217,15.04040087852291,20.583403536349064,21.811187631555825,8.643270819596077,7.432439433617568
2,1,5.5056819190649895,13.630708273960753,26.861294430923802,14.863574346074092,23.503917623970665,23.06236766351487,9.027374663056147,7.017049200422237
2,1,4.898511475222809,11.632300986711293,23.823721539198463,13.850040822739194,20.435195245420353,23.22782305101126,9.279686148638316,6.836426111225359
2,1,5.201726503741021,12.119023358363073,22.873255980718007,14.404454573464923,18.44769095528739,21.849632263055803,9.114494007194327,6.321933644711855
2,1,5.1099706427585065,12.509632275474628,24.606391760107382,12.299898846924282,20.50796228044518,20.26595668978662,8.694531404795237,6.078539808512097
2,1,6.335514455559013,12.823154650934303,28.830899971305904,12.343133375208566,24.01532922631435,21.29351944764552,10.346193108863533,6.021977174317797
2,1,6.662114986526793,12.891187084783544,28.95100391049952,12.920442784999247,20.125970977685807,22.809442944159315,10.056818479406143,5.1112627254947
2,1,6.965089039073121,13.23115877354809,25.838934163359088,12.251611329875344,19.46295757329874,28.228777161531216,8.9785672059241,5.614379604009764
2,2,5.032149879787979,8.672899878188794,19.310554017953056,14.204801046411756,20.979447498956375,23.653243601963318,7.03472066767914,5.96557869748827
2,2,4.943928144707907,8.948453286696749,21.028849086526737,14.694248741814429,18.1550785888936,22.419610012195466,6.529620299642084,6.157018871833419
2,2,5.459444928724544,9.643098079434669,22.99916495489461,16.778349879002842,20.27977817421041,27.729004124233285,7.532433541516965,6.567123996672026
2,2,6.030186191899907,10.723444766735366,26.166107012960964,16.862119106157028,20.248095369536685,27.044261370487856,7.679737092202462,7.920272470776932
2,2,6.375685462406736,11.541598584716237,28.55170633474422,19.50363418299552,24.58534831338019,25.61489724992209,8.122482554290961,8.03569236680349
2,2,6.147092136823243,9.909059348612182,28.5216761254476,22.460285914708177,22.32695761205713,29.315193125046235,7.298130090665626,6.710597972136282
2,2,5.3458152081846455,10.279344741769942,27.903124321250484,21.545474633339957,22.357144154750298,27.96389353306938,7.147552080162764,6.17518765795779
2,2,5.1232773669383835,9.755568358171939,28.05402856548964,21.54808524706954,25.564359914332446,26.545196987462358,8.663753886805283,7.321772894665759
2,2,6.601748116412835,10.798549353799737,32.444740400321535,20.3804310318171,20.312937400643357,30.596149945036466,5.365902570366991,5.234579121298455
2,2,4.34375887319877,11.16614777394882,31.385610276187993,16.226911359958734,20.13982132925039,21.051215733606657,5.703119473576095,3.962961393334937
2,2,5.005178803869622,12.40192936287168,31.707598395522268,15.687550512856244,21.20204547766226,23.492473794970575,7.121305869984792,4.163889662557179
2,2,6.12481024116258,12.441913861615788,33.321168919004435,16.709741189331222,18.62618218111771,19.17615189951824,5.622510079191509,4.620935214244475
2,2,5.086515778901808,10.522442710543398,31.37362292900348,15.681474354503596,22.198526009666676,18.39784313240661,6.388311233799091,4.455245992054041
2,2,5.528670566915925,10.86257540319709,29.840485337291906,17.464000674604527,24.38517247428521,19.842687545492865,6.614488203137008,4.8218196165226415
2,2,5.403774200355216,10.991826690854246,30.243281522132538,16.51303982265593,17.02514828501383,22.341775568314727,7.2412223430240905,5.189744392506493
2,2,4.977120674344046,11.183560639978442,31.58455221682182,13.502763647157995,17.889771696424667,23.150301401782187,8.227633154172011,5.850785816271699
2,2,6.347999763780878,9.982446938081523,23.08625161421671,11.876465855332583,18.357607583464244,17.9376199086544,8.628524682460764,5.3527350814166095
2,2,6.49171127066951,11.394573164240596,29.547902841999495,14.073944882925712,20.547936703052667,19.809582914423267,10.185078503456316,5.927962141251301
2,2,5.86776790154285,11.517695382904336,28.245731798952438,12.73572167127951,19.89726974892127,22.009224839508008,9.962405794361622,5.428696982909668
2,2,7.013869334565267,12.62580039147471,32.35435572432537,14.782092404994373,20.10124296990823,25.46232337306743,11.191724430119098,6.243259471051965
2,2,7.082396751095995,10.760283985097724,29.305520817837575,13.80492348513167,18.27228857941732,22.88367920620162,12.648908346393165,6.419176442120038
2,2,7.309617608466309,8.980660631238015,23.71922521350897,12.800279233320788,20.764424668050896,17.025776884975205,11.46218696863804,5.666583267057474
2,2,5.761300075448776,8.115924787149728,22.224573107829443,12.97886708039458,20.965386437850658,20.639183964216816,11.272517567029151,5.567051006269688
2,2,5.867349289364695,9.082176639030408,26.920317597867385,13.778326354369415,24.155889155089206,15.446099700105817,10.393817067393563,4.813520350626367
2,2,5.9714738231350895,8.369583594356271,26.06718682139312,13.149582873389312,25.03339202200336,16.555981570364185,12.29184722454772,5.236379449715612
2,2,5.67247996312732,8.574042674817012,28.64408248074791,13.477392095310021,22.564424736377504,16.76827264972741,9.612022329394135,5.137479863465178
2,2,5.736541658876823,7.784414920993418,23.96992600425675,14.678762646644062,24.126606029727565,18.142045160417354,10.491957314681185,5.394396521852632
2,2,5.78347253727206,9.153536437619355,22.407740739084502,12.846120298195048,25.21264806082723,19.519320503944595,12.094981905094542,5.872511806964916
2,2,4.973896719211947,9.983454733656302,25.413954641340563,15.036465150235255,24.221819409847054,18.991234990672567,12.152969011794708,6.2974402926362085
2,2,5.423150564601152,11.84918883819543,27.99602681206571,12.999960451074005,22.34110799834586,19.913218916804066,12.695736631736013,5.612384138870024
2,2,5.6568806036006505,12.780168883764347,29.421276509190097,13.279855380987312,23.7626938250462,20.813723982807176,13.133709373424724,6.050124538133706
2,2,5.831914358544987,12.67110317942426,27.826829909657523,13.41285279250747,23.597740277630677,23.20346503640189,10.875776244533968,5.099338033200222
2,2,5.955752870575714,12.01213487176971,27.110559546915326,14.48745461598929,22.815102945996987,25.7868483036233,11.38957269961227,5.426448458782836
2,2,5.610345986904847,11.940495083461128,30.13978020120017,16.052294133812527,25.40662650640383,23.55221087408384,11.726621061593745,6.275651820731915
2,2,5.788326287901741,13.011927696500717,31.14923966068009,15.604308834420644,20.164336960760632,27.96056784412331,12.237385800488832,6.3155044843286055
2,2,6.458360453907631,14.058147812030604,31.594792082211516,16.44834581804479,22.445531629718833,19.88939278794632,11.519731001062386,6.151297210787545
2,2,7.102254150785191,11.93294216430327,30.017223939343985,16.692157289183612,19.65061175640149,22.30204908923462,11.034698844132837,6.6932865877422785
2,2,6.67645912986887,13.319706495425557,27.139329117193395,18.150367644033057,21.348784766227933,25.081193753148717,12.327083718606117,6.503808485217669
2,2,6.655630059741615,12.76836965851539,28.554017525266033,18.13077085938437,23.26875166277312,25.390407938065945,11.326311022578055,6.544521596356257
2,2,6.108526997044319,14.598215357851101,30.255594455632824,18.010405115470896,23.544028703380864,22.399443137532707,11.198837900779486,6.192032789206377
2,2,6.543547241990671,14.889673737599729,28.754117043442363,20.249156853952922,22.51287755912523,23.874118487004978,10.270216000624108,5.92349994231291
2,2,6.1238397438181345,13.298763988710446,29.428613623381644,20.02205622234658,23.371128157104962,25.923191491280523,11.02459751634355,6.773193569248514
2,2,6.713970639079525,13.254880771842322,26.19317289813286,20.62439864168648,20.092549874705888,26.547485232307324,11.29194595055001,7.290477235315564
2,2,6.696815222048451,13.045972377817339,27.445422940594508,20.715460848811126,21.98482340976446,25.07368761122214,11.137746066764452,7.923926014160406
2,2,6.279437473972663,12.025550615588067,25.90540742645604,21.186864508235292,25.736790171409943,22.854439670117713,11.700407433369683,7.1800842775552285
2,2,6.644855276737701,12.37441509020013,29.041213061895615,19.93848982739911,25.033415002782682,24.849211953897,11.270274240248584,7.255602066731911
2,2,7.595695958480765,12.769414745205397,25.765744850567298,19.34704990872623,26.795232006861845,27.301682521098797,12.468738312546352,8.010406947827725
2,2,8.158286572562938,10.477733881874576,21.023779789233107,16.781151011816142,25.12380439849835,29.843493164909244,12.71083837856079,8.807769934623893
2,2,9.437160371288986,11.534959355157175,20.718495063647293,18.05431956487331,28.83273295166913,29.743413958282297,11.46951056278351,8.566496796932679
2,2,8.160609997125205,12.54734895888232,21.723445249687927,17.714385205520987,27.29433555999694,31.318626116568296,10.673260626873999,8.520943063803744
2,2,5.983094738057547,11.090434749127477,22.77105759316072,16.509592326690502,28.197804668592948,30.513066073864838,10.2649649197494,8.549385217192967
2,2,6.1405806062505865,12.072756273600119,26.652498371033655,14.0433569234434,22.664109652318512,29.912997805196927,12.100181865439787,9.730931218876666
2,2,6.223262637728507,12.311993002988377,23.047110060907876,13.477047562694334,21.667720196141595,28.592025429133102,13.553024960392438,9.603071557107686
2,2,6.912153154468763,13.196000376537548,24.214233438666984,13.84480063980024,24.06433419869142,27.96716593332166,12.185857861515188,10.331566420969594
2,2,6.325736999806999,12.930590793679583,26.56478852909079,14.093070378823725,23.515363396867656,28.66714281856037,13.453276763681627,10.166460267244371
2,2,7.217755717126091,13.084142378438521,26.8680337550339,12.842258824209093,27.229425203330234,29.410828749174183,12.801791263954176,10.642875531935841
2,2,6.810401061321843,13.310815664801767,25.20096486761526,12.001124834119183,23.076770078192297,27.247006120651474,12.426060343753306,8.445869106615442
2,2,6.685590824943986,12.905939691669767,24.664805230625124,12.475365564241045,24.55457231658674,27.7831851012274,12.307717984315186,9.056587315857396
2,2,5.337041735818201,12.338412311864948,25.861916298404868,12.838124358757614,23.323279942496722,24.910424048066275,12.517270678821978,7.426016566488816
2,2,5.527765169924727,13.54822365499625,25.18881643579734,13.629201733328426,26.59280743680664,21.109266889095718,11.932003273994392,8.099905581367478
2,2,5.703892782425373,11.772190574536507,23.720450030824818,13.786625268674157,27.18490168493412,24.013343269436067,11.302361588728015,6.801240998395167
2,2,5.515163065127966,9.238585922102471,21.951591934821213,12.8225051887664,26.05045498493916,23.500471282770086,11.734340749064229,7.709709905087785
2,2,5.0969719677737295,8.655763368883632,21.08662984315219,14.068960339395105,27.704780021426775,23.03760507291072,11.096364274388645,6.049502490980652
2,2,4.9775886024775735,6.954452117008,20.251741256924838,16.1653782905388,28.466535635735195,21.930496804334005,10.606855171319113,5.8552789348306895
2,2,5.506413065748315,7.556138843555486,21.22519665199836,14.861406613361552,30.36718438723068,24.41285525696192,12.158267363510586,5.679439330059426
2,2,5.1237342240546155,7.356527821632332,23.36835256223397,16.43398358873233,29.436475977594007,21.91121938049363,10.225952608327812,6.424850704632351
2,2,5.097347433751692,7.8870509342545665,23.7376056826782,16.894782408896134,27.707390834298394,20.97483318666682,9.885099140854647,6.457223540220744
2,2,4.790089534550528,8.518302503885897,22.360977736523136,18.243912954195938,31.4708633406423,22.454869713887536,9.41049872040765,6.731013138045075
2,2,5.171047237145491,8.142850989234638,21.32546312733098,18.31408762948592,28.098793405123736,24.689314697228323,9.723546021589572,5.641151369375764
2,2,5.634543905109427,8.967119030006838,24.203462565192154,18.884044285939957,28.33076740967916,25.72774136033594,10.465086778852159,6.000491949087685
2,2,5.903057709379546,9.004803378082947,21.20031997432823,16.13647916074495,24.726941132243777,25.94215026184073,8.959328543719131,6.053310638457969
2,2,5.520837147764136,7.835432860876485,19.49284178663611,14.653805040163778,25.790143376922334,29.441110434215684,9.173217365101758,6.478217011837031
2,2,5.590245579025348,7.540701622227319,20.064072969357255,14.40626531752514,22.90953439591886,24.87517557172134,9.739527511699855,5.604272310025251
2,2,5.431377186105385,7.65582665047815,20.760731291307085,13.346476241185215,24.45571914218292,27.09606194738304,10.233317387098468,5.106439753993986
2,2,5.847522866267844,7.959928733077663,22.95676836124063,13.982249197678149,26.45790554896905,28.346488346146025,11.118778861155878,5.410068076126789
2,2,6.389218268832322,8.241315398613256,23.519458398707297,15.352099043665547,29.859977748741304,28.886509817712195,11.553999648594292,5.65681961945969
2,2,6.461704978821533,9.176438781272998,25.850733833630503,14.89521313112631,29.502502773672756,26.77560986380155,11.550955593508412,5.570537791247315
2,2,5.051059031921116,8.17631022749214,24.223538246740333,14.690087994063369,31.607140132744902,29.65164758400458,11.903803192845057,6.409718139763078
2,2,5.626825990697633,8.376196517705704,21.4979809173433,15.37186536279305,27.941126267440676,28.77181016277357,13.221106952230748,6.0287973895975
2,2,5.451741699625325,9.120120501752652,22.987202069845328,15.58187207776578,31.32552920658479,31.72588672771513,14.184322267703406,6.409052726735499
2,2,6.3740346007560955,8.715558174447686,23.882173830025195,14.980547377135215,25.403264138500372,32.214670213904526,12.303336934862173,6.813538511026486
2,2,6.319717853975884,9.598739323636508,26.506140525320074,16.318532507077936,24.9494999130206,35.5712546165073,12.638546461838432,6.631244069173549
2,2,6.066379376717588,9.35237666101021,27.115750235311058,18.396656908559194,22.27385794640056,31.383340880298768,12.903806660305513,6.88735312273262
2,2,6.846937827695565,9.392738593273773,24.53401666503001,17.953670481427498,21.102371217826725,27.834200169733975,14.040888757607659,7.194321099860784
2,2,7.4442596600392354,9.405047829555613,22.61010191427971,17.18656841177207,23.13253561183737,24.98566475619609,15.021946892020615,7.661899224565743
2,2,7.1087784547089505,9.752951580644195,24.76154785989366,17.395930443533157,24.492287453725485,27.69678049055051,13.243241598274718,7.165220481442582
2,2,6.211599960729258,8.626135207516787,24.75045461665273,17.772236522695206,24.09848655004267,26.57909730091396,15.26307712723274,7.735656980503376
2,2,6.4678854354318815,7.8346596921241884,19.257262161731344,17.55962101877127,23.32740075694386,27.791825669715863,14.11498706404918,7.450994986120969
3,0,10.490942425955831,15.588420498881877,41.68186908281678,27.880631618784992,38.9764321549179,31.484854361704386,16.01980000195031,13.889887569043552
3,0,11.590242309163088,14.484199406289259,41.22826716303515,30.207485760411803,34.453618191305324,33.471006701921816,15.696396495555138,13.313024038307741
3,0,10.385956926319043,14.987232606613613,40.43436116016736,31.981817337491755,37.669531186517396,35.726073182635396,15.438594000089584,13.433026619418907
3,0,11.8599066535171,15.063277669972184,41.0456589358164,31.32072504846303,41.97396156132217,39.47128489617934,17.39090652809892,15.056762351667913
3,0,12.065790964882702,12.59417208826201,36.8012572238362,33.53416651560569,42.927680146734176,37.81143061539316,14.70071221062117,14.186066422140804
3,0,12.918623938529151,13.356120889157598,36.845313910795326,36.105558984953085,46.52438796179159,38.16669613173396,14.437556671768228,13.008189490251326
3,0,14.738162015220242,14.51335062009744,41.67069255922547,34.646034454509106,49.761296182238574,39.121630178933245,14.689315243588386,12.583385136873247
3,0,14.771793450190243,14.06908261895078,40.561822996274216,40.52184446594409,44.03053845060904,32.19311915760783,16.279467738691444,12.798143415054849
3,0,13.501995323332194,13.00685726798339,44.87200878392253,36.19962202248179,40.113071634371124,33.67485134312025,17.075812603889442,11.69914523173687
3,0,13.16117050395242,12.088676223732353,35.36903744148322,32.77043544388162,41.66693398231912,31.431745622439294,14.671533104818922,11.563226836737634
3,0,12.676429018479881,13.295397631469477,36.266733860290316,28.81369455734778,34.49807386491017,34.012663210110354,14.284082450886956,10.418972523740301
3,0,13.699221414704894,14.339233647445297,39.905640804555766,27.457294326885954,34.04503269329897,33.75706682764532,13.578403211687528,11.960049499879302
3,0,12.534630850410885,14.055274156142513,42.10966578268635,28.786818199385888,39.1912282824614,35.980270011374984,13.491203903877738,12.139427176750974
3,0,12.328727574858968,15.41753568881107,45.258190114686805,29.368053568119585,33.76921074681556,34.67063068751897,13.60746029547961,11.371257618012653
3,0,12.989279195261973,16.106396018775317,46.9768901639738,28.435802140814825,32.90271193783249,35.687921761450056,13.574094722922098,11.34912152063589
3,0,13.41112972486115,16.920599510289936,48.729041389370174,30.318260963454836,32.72155170231876,28.472281209892714,14.7470281927934,11.956517296124783
3,0,13.696101364977528,15.553183781911894,45.76143463691437,27.418356372058952,31.333639617661067,26.43724870193097,14.530868998100855,12.793162024085968
3,0,14.868822228664428,14.80480429838566,40.74895166064019,26.289453918429313,28.553217711767243,27.178612001937047,12.538895557428848,10.80760326915255
3,0,15.782726377051466,15.096174331986841,38.47211075419233,28.39381531521572,28.99789942326379,27.836914335723158,13.589535285043443,9.830273349325884
3,0,13.180382046429841,13.987143884385956,39.77856803964072,29.225656532258018,29.18253777939923,29.53253631668772,13.969752540045647,10.762552809982513
3,0,13.606861550523123,14.467165587296591,40.188481425857326,29.012961872644873,29.82166334239525,30.565376616912854,14.579946962058957,11.466179765595438
3,0,11.742413683265264,14.413953877989748,41.70214097951392,30.37660510588152,29.70822600141466,29.49183318411856,14.990154465577362,10.733936421706565
3,0,10.952654479513258,14.169009522065847,44.6391137285326,32.905376693071744,35.763959923872996,28.61993554974101,12.759637842287914,11.331615474344755
3,0,10.115565518136094,15.414222857373842,43.91351113360625,33.95054455168544,31.879542778679195,27.70115830709714,13.319149433272301,11.24470597129817
3,0,10.272863107936713,15.045628131129169,40.923249225262666,34.454164590063584,34.48798795935669,29.615142770791483,12.45670118852277,11.212755587088745
3,0,10.424452543632466,14.989031832538998,42.964804964143255,34.2152656090159,30.975919131959383,28.13390761516118,13.24301873072142,12.239533317930432
3,0,11.074786684596681,15.935709704671822,43.347805759196945,37.45713203079431,30.539282998299132,29.666635938691844,14.598703110010138,11.838833445621473
3,0,11.088644351629258,16.93040408295403,39.491736523351726,35.84500716907074,26.594876344601545,32.64405854116586,14.118030042170446,10.723226603276
3,0,11.830753796766468,17.06979501982741,41.924314678637096,33.64706140779532,28.25475554166327,33.36607164056233,14.484090931957795,10.164994465236706
3,0,10.74400606420696,17.541149129691597,41.2726774644253,30.234428646678058,25.80956895015237,32.30993862714925,14.9465186063624,10.657024458021095
3,0,12.028774517753227,18.943450432569392,44.34671017639318,33.361857743142465,26.48307103228352,31.897281117394733,14.576933255664239,11.087460363931337
3,0,11.773073693026705,19.54274101830091,44.32820565866156,31.09290093546762,28.438685271355755,34.93614305427443,16.1918346491134,10.180658913564777
3,0,12.042010697265374,18.808659281473755,41.10308155428045,32.29283078316948,27.479520325894793,35.65149472842659,16.878335349958178,11.100841793963058
3,0,11.821082583756477,15.556633912972577,34.370600939418175,24.676874857442797,30.035135299055725,36.865706560970914,18.196905546924214,11.64881522110364
3,0,11.64957774778762,14.40368210886826,33.638149602842816,24.89544117057646,33.40327143998625,36.50957819185281,16.96204146042057,9.050887181801826
3,0,11.226683319155628,14.18580595362696,33.40939829932974,26.52772638729462,32.322487776733155,38.60257526012816,15.108787954665953,8.47370398499186
3,0,10.83992044478451,16.012493434066304,31.275857330174333,27.11880639193474,33.62674170699808,40.22102321589966,14.100109454402128,7.813708652728151
3,0,9.529800599619087,17.238887818635828,33.51978741063024,28.856201192187417,35.32361940309873,37.73774209700414,13.759727959779514,7.889812466562759
3,0,9.235282195376191,14.519907250950007,32.93755631960124,30.257155402786303,38.37368468796289,36.82809796757908,13.793611312477239,8.120875363825833
3,0,9.468675405737656,15.282286454927407,33.38217862002985,29.043400367901484,40.13325620491497,36.52310604087296,14.6837852066925,8.720268281462557
3,0,9.850622514881541,16.961010702292462,35.77272536051638,28.002041471531765,34.951669240571015,27.230328291958006,15.740162264776904,9.00335402377401
3,0,9.380953561719245,16.286058757225113,32.04463856500365,28.256342941813973,34.22883394639494,28.80503455617814,15.257392847887548,9.688346260356678
3,0,10.392302320341685,16.12095244979742,33.11579986771356,29.14597156096169,36.830845044313456,29.217413134440868,13.916479234173782,9.607457646607315
3,0,10.677160967755242,16.653486758175752,33.54921157319622,29.07346801295523,42.32458363353737,24.65526422235721,14.23714420244986,11.730466109413479
3,0,9.425280472495514,15.38055686290312,33.913302739002255,29.029143193723975,39.9372324056432,27.058802225238743,15.028568605051683,10.315789357499762
3,0,10.31427492174097,15.582229065355197,33.63164500203186,29.26515893220865,42.70849357582149,26.979506944225886,17.489771876567836,10.190428672736198
3,0,11.225180752860222,15.995272079413576,36.33397851785194,32.22832467354154,39.97665935076632,22.78179783569782,18.531680391695115,11.418993324833341
3,0,11.322271283965204,15.854351575460385,35.86518783547932,30.94511133694916,39.48448017502964,22.16859985492536,12.938377591386825,8.732286361183828
3,0,12.227596354295898,16.433667244918777,33.13335267043384,24.739600861146137,31.8940003555561,22.053846584328216,13.198613496890546,8.904863676694424
3,0,12.159351980481876,16.997016098987196,35.95341602813672,26.608006600197488,34.33761487053596,24.274636304918786,14.1557766308867,9.265056759359407
3,0,11.347263867096908,18.927595314907066,35.46682211064815,27.200202983184614,35.48216161765261,24.976961263155708,14.847283341345424,9.16862229503122
3,0,11.976760964461835,19.10536682927902,37.17037359081855,25.307280517675604,35.166408766229694,26.501039665381843,15.197198001673888,9.059183528515764
3,0,13.839852760049988,18.911295661710536,37.024806337445554,25.609974292582656,39.253657575424754,27.449469450017432,13.261152344888062,8.907352271666573
3,0,13.607183053376476,16.645438700867036,34.64483430496213,28.413317294997185,39.13599878889013,29.812960820158594,11.918687971339473,8.889579918516601
3,0,15.29736978029914,17.44128136498612,33.9057366348825,23.370753373874216,41.21149206686437,31.398683413222432,12.164186021118146,9.297047410036374
3,0,15.758287340170163,14.920464789975872,30.337993121336556,23.848352090438663,42.845453487592685,33.36368552270598,14.146625347522985,11.050131978663858
3,0,15.428542603791762,16.17207429417136,33.488212136740245,23.000594172912848,38.493087766840546,29.605222219089434,12.537710285774056,9.104970661172677
3,0,13.62986536020548,15.74540307022902,34.69944294793367,26.160351685645303,39.660504023074154,28.700782634353818,13.403209112780852,9.527925845578858
3,0,12.532623331225903,16.656920562779735,36.03288238898892,24.627546959555133,42.46412736845375,26.83601780494351,13.528369075349538,9.568478780097317
3,0,13.430976952440234,15.688726154523762,36.98962161077624,26.40003881870791,35.54759528287065,27.470070314192675,12.169800611550272,9.44440333180813
3,0,14.991860360858249,16.908748481537163,33.968563532023765,26.083354259253184,36.103359595268614,32.92838823763352,13.582190513726045,9.640988027930659
3,0,15.597224808307745,18.537268617241814,36.29539305385529,26.015891993359435,36.10815271469931,32.747448445240245,11.33121424221796,10.882171095630532
3,0,15.46333082549312,19.327200347059037,37.5620872654665,28.961564743852865,33.76717776664355,32.20377825609353,12.600143815820966,10.05488138354224
3,0,14.547165210362683,20.595519230735942,37.63522293310192,27.18666319097841,34.54531973994843,32.94805238318242,12.79732689118149,10.129175885181532
3,0,15.591997281382195,20.787695445847937,40.18781355532548,28.837818072669933,36.49336659033369,35.22959253428218,13.298557881520814,10.5918565617752
3,0,16.220881667208808,23.154698940819998,43.12940911358308,27.968949603210863,30.70962514599052,38.47687871764391,13.178799853590524,11.41097399222819
3,0,15.687893863834786,23.39167108826279,46.486778133364645,28.183675430643763,31.208574551044762,40.802415130129724,13.01233234159652,10.501570659812163
3,0,14.929698055802357,21.312411314006035,45.17680600554037,28.764551432037976,33.35292331236618,41.21245252390038,13.982453059021733,9.96072278539728
3,0,14.328237810330117,22.42424090898065,45.21153425223915,28.964809404616172,34.0824372101504,41.13635911749316,13.2949432351966,10.661910529889925
3,0,14.577664254771301,23.406557202181848,46.598655931655195,30.48475240051628,32.97675854564285,42.437579711208166,13.959075737887568,11.260736271832942
3,0,14.872002662961016,24.116637512273318,45.409802784666965,29.9642322060821,31.583868642270904,41.57794625376523,14.173090609670927,11.988705567849715
3,0,14.281167209164883,22.885382708665226,46.54193866850231,26.011962942287077,28.606246184555733,42.93163224964539,14.663877910096314,11.877965377697697
