weight,trial,C1,C2,C3,C4,C5,C6,C7,C8
1,0,1.5466450861752066,4.3786715857530965,18.340532312264575,13.85136068127078,14.352688545578912,4.260885627347772,1.319454491420516,1.3737043414589003
1,0,1.4405825066682263,4.468078113479351,17.309917494474224,13.607958737602827,12.588809512546232,4.698543331627041,1.085798842510097,1.1694547469694092
1,0,1.4132582585548499,4.762733758315901,18.43445103273583,14.943269245346457,12.700286825431332,5.06857152736847,1.2128997020647787,1.134136066462912
1,0,1.364883326654652,4.928952784866205,19.41909975790054,15.7521919669774,13.724936893630295,5.598701135653698,1.2391838662242276,1.1844854491209675
1,0,1.5886519676177506,5.2533785368761,19.415769470489806,14.82098665622004,13.329682377415923,5.716420719458206,1.4997682833219204,1.2751090688320377
1,0,1.6928858898516754,4.89591307308951,18.043614677131337,14.903977284173669,14.002556423438023,5.0324470668408585,1.3797984343236627,1.240069663838734
1,0,1.7198571819958401,4.591508546482702,18.986093728276114,15.171605864092705,14.211988947095703,5.066017686575779,1.501486314767282,1.2301438226565673
1,0,1.7380229016482174,4.910419027986122,19.488427962314884,16.44694545292761,15.168265330210405,5.590626028046801,1.5010772524262437,1.1760723055401292
1,0,1.7135125152324033,5.183982918855562,20.382341556324004,17.735295833168482,16.35654079054247,5.523342098088276,1.4409360149966937,1.266851040434026
1,0,1.5013752352286585,5.725777649051802,19.470350206736924,18.0579458744525,17.154997796718312,6.363454964681971,1.413359711449533,1.0341193166684988
1,0,1.4926727100898234,6.096148359605998,20.297792937371728,18.20768079829681,17.819392577877966,4.734669711168239,1.4082689241272828,1.0378913972828017
1,0,1.61874825525682,5.743415506852644,21.991196086066072,19.607450622945176,19.86904304105173,4.956013884879013,1.4404319875844152,1.0492195793647658
1,0,1.5784427092259574,5.750793982785898,23.90664046266676,21.03753337543112,19.578118239060665,4.892251816083288,1.5220463175019419,1.0931295559965422
1,0,1.5190331352880158,6.006330782852197,22.590224768481633,15.884982478179236,15.988864484855632,4.2001308393232115,1.569919701743154,1.1632714298391327
1,0,1.5058477237365864,6.089161882148348,20.69231915014067,16.92362201099838,16.846101885617166,4.534208172997909,1.590918967288731,1.0753131324616736
1,0,1.711683851862226,6.408253445825482,25.362501224097073,17.16662891077195,16.550844614592904,4.294247243108405,1.5895470563673555,1.025837739317191
1,0,1.7490573910204175,6.247959614823914,27.302330044129576,17.92900630872815,17.689150017240898,3.8565839420503782,1.7516593620769583,1.0280955968997387
1,0,1.7524882213802397,6.273961037120696,25.435077580542643,17.20541561943745,18.901714892850464,3.7963701034565447,1.926357477207461,1.1132295454055579
1,0,1.8333102613073355,5.623637185213415,25.779559060685013,14.909885751320703,18.40760458173249,3.1956108418012223,1.786931624247821,1.180670568951057
1,0,1.848577648177212,4.862485572824449,23.557787313522113,15.119396537358726,19.33994918645372,3.530009714443582,1.7261845198900256,1.2364135409205594
1,0,1.8305643045561335,4.7003643372888355,26.89027959322554,16.15970827470336,18.59022758533658,3.8352141268228555,1.7981230737909355,1.3851035718969482
1,0,1.7461622554023666,4.6321262979088305,28.623989378781328,17.388413160265603,20.929975079677398,3.6748172683725118,1.5970659177420554,1.2663514063338865
1,0,1.4852964295389672,4.485949049103865,29.29643241685309,18.116231934495165,19.249103317162778,4.0907660652179505,1.7296564732031436,1.1986155951877921
1,0,1.613936871953092,3.643017599010223,21.692934347579236,16.878613439794712,17.543241033567256,4.245453653906677,1.8710665849747299,1.2322413896809723
1,0,1.8138523195205747,3.9783545682872545,20.82540285840105,14.85082711583654,21.249462982213146,4.1997074364975635,1.5419814694765903,1.519442636092476
1,0,1.8177357284643894,4.225894630524075,21.405714212980325,16.365124195106795,19.371348509153727,4.292684521813309,1.463010530169098,1.3174380892263782
1,0,1.665670746069285,4.2045034206588685,25.03868513315471,16.596757293409944,15.097261576746732,4.63556541531084,1.517505502844654,1.2484784056002907
1,0,1.6787921812456488,4.2864299855617425,26.7341692001987,17.572178126764626,14.511919735632162,4.727864975149821,1.5148382958936417,1.1100182140440116
1,0,1.6917506237774291,4.740891461601006,25.73894886625938,17.01853836807875,14.904373087349441,4.578697240440456,1.534359998329199,1.1648380789953001
1,0,1.1252972422413263,4.617986771160537,20.524248401910242,18.127590852704202,15.940358337647544,5.194113680986492,1.6665890564430716,1.0431206509141073
1,0,1.1520606116602916,4.971993692344876,22.521928911500755,12.108281557316669,14.387552452247325,4.476242795579799,1.61572730397819,1.0592783082592285
1,0,1.2333992243472138,4.591218939856607,22.41815453841832,14.150433142936064,16.448103226063445,4.546111951300308,1.401165115146874,1.0639184907563002
1,0,1.3958670749153994,4.009389471709278,18.606844042947575,13.153986496753085,15.56639669672081,5.146878000574923,1.415726013592231,1.1981534129571392
1,0,1.2816881962412807,3.5435818638674266,20.516922289747995,13.454361424271259,13.209521060927445,4.909336667608757,1.3026369491933605,1.138875432804812
1,0,1.2465481801713558,3.463357102063387,20.100238837512602,12.504949269599507,12.985141424426818,5.231485371499515,1.4141238567470562,1.127091660926925
1,0,1.5927916305376615,3.7765530671845555,24.76491027923132,15.053184952772172,13.467156403231154,5.002274603594412,1.3969768354386927,1.2781057230487882
1,0,1.161609728058475,3.7173071361071766,20.829877774077815,12.136230521835074,14.311477991114202,5.28297108098526,1.53897896799823,0.9969233928170262
1,0,1.323709698201413,4.227465939749833,22.154532485872252,13.645170807384037,15.66943937423219,5.620694839172466,1.736144919283721,1.1380392550982092
1,0,1.4919832204431933,4.69531598824478,23.44278533795964,13.434765594059314,15.204268983238059,5.944135165223949,1.7098233930249074,1.2323860644796305
1,0,1.35119392049861,4.466760546240407,26.83673915752179,13.754577219326316,14.142593469556497,5.290830577316887,1.594281507976251,1.3223974333612178
1,0,1.4400013124234152,4.829181793166555,23.958324971954074,14.586165126199912,15.435580924889067,4.8021268317029815,1.6345885324713036,1.461849654619138
1,0,1.397761058671687,4.905248953246503,24.1030010904591,15.327643270520179,14.209105720055843,4.727567464118252,1.687835763776448,1.52197059686026
1,0,1.6669671993167454,3.6885920017517124,23.17422637994232,16.907610050137563,13.847879555211115,4.829986817620177,1.6202887528288032,1.661080043382741
1,0,1.4447683665707607,4.033845856921531,25.67718646725714,16.415134069619217,13.860151218150992,4.842462398561482,1.6136648784692176,1.4586641820447048
1,0,1.1451482638434904,4.201512179968326,26.914694301625737,16.917584583139117,13.80932023566564,4.884234392458338,1.6609481915684419,1.2535045625839123
1,0,1.3200827907825525,4.889802864714278,32.07389295702791,16.922730877218445,14.279936329627514,5.117887455518529,1.5464564794466074,1.3050055443727584
1,0,1.4291667625848627,5.607124054405178,23.44464105029354,17.253647727287294,14.656561807379518,5.044642405850316,1.4814043880205356,1.2429909589680856
1,0,1.6862087414568103,4.3917846625031824,20.62601471502697,17.187193222551024,13.484829661701793,4.901853553252225,1.5651196142908712,1.227648233293656
1,0,1.6954721500507886,4.608169809662305,22.608517547210184,19.19454630361531,14.787489904824612,5.308870982620101,1.6772792637692548,1.1585077102842154
1,0,1.6176229907922517,5.097661283387744,22.070537444775347,19.115554436357133,14.03823363007502,4.751639129038519,1.4534124712734318,1.2394772899752506
1,0,1.8157854886684506,5.011406896890898,21.998372292797242,17.318052766353887,15.33373980178392,5.383527167871613,1.5619955251876776,1.428425394342856
1,0,1.7048429663164992,4.683710880424671,20.509748199462358,17.906602465319438,11.399307781105792,4.9091770868472,1.3872023442885695,1.311994567066972
1,0,1.6826804561376423,4.376470439571885,20.1790339989118,16.595530723205403,12.137008743102442,4.993264846831693,1.5211240807954418,1.374010103130715
1,0,1.761172418649361,4.13235009286203,19.553758879134442,14.797134881199375,12.760667528534317,5.042518956043119,1.5865746439232464,1.4523831277790276
1,0,1.9579952106164364,4.471738030342857,22.495751780058377,15.454093415358335,14.7823985672765,5.417458158943848,1.720250309001465,1.4077013921474382
1,0,1.6270398246570057,4.418257263881064,23.3129931955094,15.182814671762321,13.236386691963393,5.6002494040004445,1.7461272645769037,1.2367393815630754
1,0,1.8063847210293273,4.5671553092684825,22.09479855217528,15.045765313612153,12.27237265434905,4.486835798853154,1.4889183840711142,1.355978842695552
1,0,1.951439561448755,5.346301039004481,22.341947030776737,16.165584953685176,13.92252947323765,5.003445597033867,1.5747071140262863,1.5969504707616378
1,0,2.0363446583565743,4.31569546790139,19.728452999546032,11.957431524198,11.406272503291325,5.033921879364104,1.5124856688136104,1.5064374254271449
1,0,2.2793340274681357,4.466986150515157,20.298507163521176,12.13623314657138,10.582145000040535,4.708089771604987,1.6133055588119416,1.3974102566514242
1,0,2.032622853730365,4.153961704783209,20.97801743724844,13.703876224776016,11.925551842417402,5.0495329249046135,1.6747040603619254,1.4477768830108844
1,0,1.992627640862643,4.2444856790305785,20.403018158178597,16.196173004804173,12.263717226759393,5.108507406731479,1.5135015969837777,1.2698982563006416
1,0,1.8293981394138303,4.311197472228621,22.86548655866317,14.95122686568073,10.57590331877597,4.973531679492345,1.5522712453491185,1.4355889158680022
1,0,1.7642486670364572,4.487443638370228,21.999913067003853,14.660748686705253,10.597963983275823,5.404641081452595,1.5350310654242545,1.3335350629038882
1,0,1.7648031132806787,4.217535629042043,21.09466842795161,12.184796800177358,11.567230476761399,5.67317234919755,1.5257072421995594,1.3156129098793157
1,0,1.8569221952101695,3.90767492095459,20.79629895955211,11.851452144662964,12.035050343305151,5.920577021583887,1.6305648999810893,1.3636917888808904
1,0,1.677888206689727,3.996335829560398,23.114294480400698,12.852790112011881,11.966710422681462,6.313671264744693,1.6578844254615086,1.3724837112464865
1,0,1.6298755400650566,4.295306372978914,25.097650438850426,14.471263111280074,11.54659164652203,6.178868014316901,1.4444480161722342,1.4542413968685817
1,0,1.737349474890207,4.756659779857279,28.644644390795403,16.658708560105286,13.629894149357428,6.454400330290053,1.508851968575485,1.570319235890907
1,0,1.7804025753309323,4.982457486404395,30.454928466961086,16.080965732919275,12.73090585551703,5.927526352700778,1.5884972892075198,1.5981627256037323
1,0,1.7151978205436018,4.6620411771235215,23.6838962310896,15.025761672202904,13.469744308203383,6.363727076171688,1.409480352705472,1.6101764824035736
1,0,1.7936476877698775,4.9878063908983,26.17356804675886,15.046182737000901,12.854831703317029,6.693024019116662,1.3630921219130925,1.487861049223127
1,0,1.7325254044157508,4.58420757011845,29.698075854541727,14.374764744886544,14.494717465128812,7.274646147486994,1.500679615211712,1.4352976037869671
1,0,1.8061835581061938,4.437821260462235,25.737113579023,14.255150504052784,12.793432549941198,6.4025955025691665,1.4938567608655626,1.4829138884036301
1,0,1.8817909840473133,4.5397781549690555,24.232791526032198,14.563236243990092,13.437528814534012,5.749500429558025,1.5043676128707264,1.4237837419956183
1,0,1.8535651016380101,4.794244822000656,24.054095735933224,15.58146801764082,11.79601423090876,5.567358248810117,1.4400151127222525,1.2554554712232524
1,0,2.0136393427830046,4.956710532811174,25.279608231335448,16.318521430568044,12.242614313481727,6.21760576370087,1.5058540975192414,1.430416006737102
1,0,2.0368799504918886,4.9553260583457,29.47750034326301,16.08767495257768,12.859828320395199,6.30953152598819,1.6368205313843494,1.2928217257937193
1,0,2.1285872164174164,5.118642027893487,29.18363898674807,15.241090357464389,13.284962601154518,7.007583452386685,1.7035830613692566,1.2855753563779986
1,0,2.269935783494646,4.9331002873264405,29.278215814500307,17.19281114729452,14.967866059742397,6.3301489951409025,1.6065431075718994,1.454506456904356
1,0,1.812245808307693,5.22737044729624,29.908868517537115,19.39129704742239,12.924542257066324,5.882046486310366,1.8676641403615397,1.198785711405306
1,0,1.7519257135408344,5.19232518166001,31.915170670180427,19.336678220143217,13.597912145771163,6.092050304177573,1.7696668827734297,1.245285197583335
1,0,1.6973612016879385,4.92386584923146,30.812096079486512,19.248960257819917,12.409505851838475,5.533558441515733,1.786573380611517,1.2127985970016277
1,0,1.673197757659984,5.120130561792667,34.432061149724845,21.72453819082878,12.730799133686533,5.274344082900878,1.8646338232460933,1.3730154772456613
1,0,1.4181589468847882,4.778269841529924,29.617266527151838,22.63100705360775,14.989333721959825,5.6706847419489845,1.9440983387897655,1.4472455578119479
1,0,1.4936421175463206,5.298892239523147,34.00898793309821,21.50060225705161,15.882476074035333,5.519351103031919,1.7519416827380154,1.3087074818325037
1,0,1.4230897927253081,4.770809085830304,28.453747744305957,19.387712633390688,13.804265758406714,5.529455688685212,1.722885760133094,1.353869323727374
1,0,1.6188154484135506,4.1011049875953995,29.430765809443784,20.560413150653517,13.675612333033301,4.97093442419026,1.621148975412195,1.4083483915749901
1,0,1.772881952519637,4.303620086539378,24.554631537543237,17.631906380867104,11.364733438777167,5.299020688817587,1.5958843567181131,1.3963299050773408
1,0,1.8964130148220064,4.706161865020376,27.740805087807306,20.01419527623468,13.032538180129706,4.755922234448062,1.7755008952403943,1.4470309107785309
1,0,2.0074048320663778,4.7067408645666555,29.168631334594203,16.72549874045725,12.439907859007278,4.38496817410509,1.7322806269109867,1.5117682982460972
1,0,2.0729792350721663,4.23937590384387,26.16411375649116,16.506370443694884,11.876008329721882,4.57580465563663,1.8034317055004676,1.5411526277229926
1,0,1.6167594720875043,4.244564081703164,25.43765876336255,15.813630838598009,10.781812083234973,4.597638940046952,1.7398946489005755,1.3761167732381359
1,0,1.9992159474710096,4.129736317324704,23.645928332447895,14.596494737103367,9.837195207915716,5.012085785559195,1.9402006402114371,1.393868291617315
1,0,1.5893248641327267,3.613631055127859,24.97442978132762,17.11713054083821,10.13796790364997,5.4665295708101285,1.8783483654816093,1.3608408899440358
1,0,1.752117255538841,3.7652775951996658,25.245654046310825,15.629850596468188,10.85902135195915,5.389537317800098,1.9689076214782764,1.3511989474759571
1,0,1.6802725036388753,3.777626569569005,24.28668066238174,16.21784645134287,10.871064206930242,5.894050954009115,2.0349455617212486,1.0723769303774495
1,0,1.6950130702063462,3.846932305847785,22.485696724762626,15.50077629138927,11.204897212828621,5.4193847800841155,1.83639423819993,1.1813389156901661
1,0,1.6952064695318874,3.192504231759574,22.678227662808272,16.810660419055107,11.069237787501326,4.444684963220547,1.719462492987224,1.1917473328612043
1,0,1.7750352493469823,3.4556254172152303,23.616046109017702,18.939042295408864,11.778680822313778,4.483649764698967,1.6197883279121863,1.126519401919663
1,0,1.6701673962811423,3.863562079960849,25.401238297839217,20.09685013610557,13.154679688200492,4.066454238836459,1.7607788167172371,1.1999284944083692
1,0,1.7853365407295119,3.4068466109313693,27.857395491459904,18.838095860555526,11.023931839478415,4.525277066125213,1.7203040473808637,1.1698263421721353
1,0,1.9849428955394925,3.6810259915372177,26.576948269849595,18.51438589011169,11.69607633575805,4.516980420704745,1.6409759304188611,1.2748365555595018
1,0,1.9487408967219462,3.957931946177376,25.41680247161944,17.31217324303345,12.486939221846644,4.278486083601142,1.8579289366815421,1.3258405282612948
1,0,2.1203860978042375,3.4665908488057386,26.393081122322634,16.357684550202652,12.756401528381627,3.973887237926527,1.87189088477065,1.3930892184696029
1,0,2.0020740021497447,3.6276019353602575,28.113626300920558,17.679418190617184,13.519975611531875,4.384741976641592,1.743115913338821,1.2839219493334861
1,0,1.9095498456177111,3.5867653339929646,28.281387172097812,15.814676675426549,13.301324269436586,4.563109506203183,1.5411351271449565,1.3360628285815206
1,0,1.9645779051688919,3.7964440132708273,28.58477844128751,16.451556444134642,12.656552582614674,4.214979111734781,1.5518602288070777,1.3340807460170099
1,0,2.0555191613297827,3.568759712965709,22.458326030663788,14.313697049069004,13.500891753789885,4.498972479377116,1.6859381813947696,1.4498485170772462
1,0,1.7852851058346184,3.606194625257697,20.29493228885383,13.951958773378877,13.250116905812998,5.359979893779857,1.8110337383923594,1.5026297880525763
1,0,2.023233870584692,3.692206531674553,21.658522768907815,15.19595097355506,14.973054520546366,5.100479364413859,1.7803938747284216,1.656079530554781
1,0,2.0105668547130335,4.112261878632483,22.650035831607692,16.167186576872226,14.367223788545969,4.95554560856563,1.8772096499583752,1.7911678369950872
1,1,1.6646547540511598,4.069755692053757,22.78427829185374,18.927419148240624,11.26532704803914,5.285077697807466,1.5747635297687956,1.3898018137514387
1,1,1.8943259730348694,4.470913292069545,22.939470011336933,19.146200551661142,10.266361744475685,5.037474173090814,1.3871139699411366,1.3831923836340605
1,1,1.7824614280441673,3.981289646254147,22.031602256265188,17.099136118874007,9.867824725225566,5.382445550090567,1.321933843301195,1.34221670620695
1,1,2.0506753063340386,4.104646978308484,22.73641846770613,18.361006615049003,8.960299458066366,5.498283719926271,1.4671589549695068,1.4186415685846108
1,1,2.0171947128595655,4.435584894860236,23.777511256520818,18.294908252940274,8.59150429957122,6.080239039449239,1.5207797691588973,1.3744592642622402
1,1,2.0523319443570505,4.543020563105976,20.127249193634004,15.261903783796201,8.503098272437107,5.99307433372924,1.5887298449341185,1.4363914715427744
1,1,2.0544271326048698,4.09396904437861,21.511037829996138,16.385605068782038,9.11967590145665,5.639505095255516,1.6310671875666913,1.49580839516269
1,1,2.1082242441950085,4.189699640208878,19.808565446137877,16.45266862134514,10.222093420110433,5.387854131903178,1.6390429091855834,1.5429110243082709
1,1,2.0700925119143916,4.7116544064940715,19.742728062918005,15.026530639448424,9.509286547014254,5.813584978703457,1.5534481913977458,1.655862487833891
1,1,1.8658527124243165,4.57020330704187,22.034734378371112,15.901301073679269,10.084740791744826,6.286088620216781,1.5163347098405895,1.5050788825545613
1,1,1.9985127205659516,4.325398473303784,21.360529895570036,14.040375866019975,9.50587885242632,5.79162948123665,1.6197732274138545,1.3985501494121804
1,1,1.9471219922578236,4.383351593806544,17.838959872121393,12.840902702381413,10.360058893280655,6.390856708713661,1.6692159013825263,1.2822426616457194
1,1,2.127188909152015,4.781600983902984,18.902737392255304,13.027079568442263,9.389605418492303,6.274399975517281,1.8127512719756067,1.3162670455993473
1,1,2.21816494282511,4.308741138841424,19.202405889275116,13.751577902808759,9.618299157199804,6.13202858969047,1.8614686487067256,1.3740127868705136
1,1,1.8306637016051999,4.252587855152185,21.672731530269406,14.396499891710562,9.363979563389746,6.304613686025747,2.015391647477283,1.361416352755272
1,1,1.8199459019452293,4.058517975849188,20.248415549828533,14.323520255885489,9.124697116504642,5.71815835591545,1.7690335054482809,1.2938697563534272
1,1,1.9495131472171516,4.329892844979089,20.89641960253489,13.35128489674199,9.114398779392898,5.378134665384252,1.753692075771838,1.3284441994879834
1,1,2.0891294949986636,4.315331296668291,21.947162163742473,12.121853996255451,9.850171143260145,6.0369195838236624,1.8702595489184344,1.391470633492936
1,1,1.9836345309717986,4.306451158495405,22.689396432514297,12.690801993856553,9.965084163416558,5.7560695303606355,1.83552153490272,1.3320405518022567
1,1,1.9280156527084509,4.758607138489657,25.378809972978647,13.484045836907512,11.304089765504521,4.806940052775443,1.5487554218859296,1.3506342900893624
1,1,1.956591994902096,4.718555871826851,25.379405206895434,14.34217517572004,10.080353378088512,5.183863936164101,1.6629223782278721,1.3537266359227362
1,1,2.155417907312753,4.824523797937116,25.378303014665924,15.968294675349561,10.825752503522112,5.469804126870183,1.7431858413134973,1.536892723218431
1,1,2.186259268979999,5.113893594334206,25.401919226103843,13.401548423319184,11.120667197578998,5.859360831923336,1.8612483613951678,1.5335236094846743
1,1,1.9011914716984963,5.191861300121097,24.24153326911149,13.643294496715617,10.823261827128974,5.83500585246272,1.6371046558362734,1.333032175446921
1,1,2.024682078570807,5.230241830769487,23.4093921335269,13.76928019085245,11.099578766071103,5.7883193097073855,1.7312753171709316,1.365784206680812
1,1,1.8852062838829082,5.289877078085888,24.79964733777816,13.931533294870846,11.478498209123122,6.306473867195377,1.8836038473184828,1.309882821124678
1,1,1.8892929677421015,5.492089870227848,26.33725395950759,13.783045770089016,11.73303909330426,5.918180106502504,1.852785053667674,1.4163186691229783
1,1,1.9353248671885366,5.07063306099904,25.977339045527675,14.439069863506484,12.37115406091448,5.8574734304338465,1.9901281117239324,1.4195691747760832
1,1,2.039611900468085,5.350121994782694,27.85570553893901,15.493737830550145,11.61632821701346,6.404054573481711,2.11395276327463,1.482504397486194
1,1,2.1659546887631898,4.724291986671101,26.476966258931924,15.253937272119595,12.541320133011538,6.054340491143209,2.036873347984125,1.425423911313607
1,1,1.9115107422098998,5.039277508770518,27.606150247729943,16.88729701422324,12.835018181809142,5.89302885591905,1.952989222501114,1.2913019082500625
1,1,1.8144007110642157,4.331062705085173,25.562463607072058,15.524520512370547,11.89380459530539,5.84086870774048,1.7093349917148082,1.0999842610475254
1,1,1.9095222315192772,4.706006573409602,27.359212609982187,15.777922833403233,12.287875507154274,5.827366456486795,1.756814169501946,1.2520069821404836
1,1,2.1145506920921155,4.042620408087462,25.65490730852106,15.89708258363996,9.864359031636026,5.034521961479671,1.6223957349313303,1.3015542344468654
1,1,2.059707599013511,4.245323282013313,27.373122337126997,14.662393049319096,10.46402748857589,5.149425572750516,1.5013345703887602,1.1855228049659559
1,1,1.9861457498738926,4.088679249807381,29.572025294810373,15.92996396779581,11.377732924504114,4.298059960433702,1.4067489134307476,1.1396488473978423
1,1,2.005393443182467,4.354681161931249,33.19655400746946,16.038782754179927,10.636651690638908,4.464019206436021,1.380200860214739,1.2976447553709842
1,1,2.0591577417878373,4.3594272651832435,30.403957696502747,17.884074364541604,11.567833355961811,4.468718363587322,1.4106237956579974,1.208046493593004
1,1,2.2421769060478782,4.554297375065526,29.509337801680797,16.599586992570778,13.201698091368593,4.871481096046032,1.451857929002343,1.3544596606137036
1,1,2.1046678830077523,4.32879420102651,31.26850782046427,15.756880102199693,13.9415391161629,4.545253012268042,1.4227232185943486,1.1479129073430974
1,1,2.0271920009352247,4.236516536739037,30.4505673476069,13.601795430431068,12.790775272996685,4.620306823323196,1.4568800337440388,1.1432084405276568
1,1,1.7577729435739387,4.417761130977492,24.851032757331033,13.445372030960183,11.242969218812581,4.812390017384714,1.6937768555899306,1.2338337926588498
1,1,1.9224601475096381,4.397235064484827,27.19711801417967,13.389722473443934,10.880129129736677,4.559269331023009,1.54143060463996,1.2533611860443397
1,1,1.970613247301068,4.607912981739318,26.722278225396938,14.131384886797532,11.982256332578652,4.48345028566286,1.8323163690743332,1.4422404817329504
1,1,2.083460662171674,4.654811982034448,24.676654736609162,13.513136153578454,12.674251423957788,4.500034316451915,1.8404904670887314,1.4054687057639066
1,1,1.9917618698813715,4.609267362965787,27.355201319072055,14.146405509240124,11.89872859319796,4.978782977525581,1.753159188887767,1.3459505032486072
1,1,1.8637202633015784,4.720613757950048,26.595907153764433,15.012209495200478,12.2182800132155,4.708166226372685,1.606718241706601,1.2343046936647504
1,1,1.7599547648854645,4.358611912567123,26.989545949166505,13.933696456482158,12.046030881738709,4.564542167239762,1.61751726396249,1.2759879049319944
1,1,1.8907887382574156,4.7804877660555025,27.191803437647952,14.18324383045072,11.059601182135296,5.014080042705322,1.725432430391073,1.362464996062555
1,1,1.9215939820892742,4.560657127291478,25.360930758712392,14.463003871476577,10.467609092173578,4.7914005260427555,1.6312707234806658,1.4403691720935565
1,1,1.8874244166934395,4.810194714912261,27.25665978885876,16.098778160524624,9.596341126400684,5.086435737267491,1.618206124322737,1.4081793705752603
1,1,1.9600361363089651,4.216311190674352,25.113328114416067,12.739493983837255,10.193243314366814,5.171672124310275,1.742696912748397,1.3389116576364297
1,1,2.03630589205894,3.8572072812259064,24.221905860716532,12.265221665209998,10.053468330443431,5.7283854206973235,1.8205473773955856,1.278400734917185
1,1,1.9301312248093758,3.6209066198924176,22.479389688922122,13.763491386543583,10.93739004656008,5.544824905340063,1.804529743760396,1.195084816188776
1,1,1.9435193985553754,4.026461168345628,21.363897579845705,12.217784599418078,11.307118883361285,4.722730729417441,1.7798175835050942,1.1828855930565656
1,1,1.5309164236715005,4.07646303348124,19.79171820506855,13.693879989502006,10.193401049511161,5.052354633289498,1.6365315673332335,1.1471966216632539
1,1,1.6375527081665397,4.553262509609845,23.116148561734107,14.816381790278582,9.834327504059047,3.8468683745782197,1.6638211223679487,1.2345874342633398
1,1,1.7811888370800808,4.081144640086504,24.682788280594824,14.116656942554819,10.276737479829626,4.183175862513073,1.609354518065339,1.2149032515176743
1,1,2.1028266217622096,4.520206457978218,25.413633903308266,14.913212717728321,10.088047939903115,4.213641751208797,1.54919948176294,1.284133194477204
1,1,2.010155383038017,4.119700496552596,25.408607873699673,14.365209674227938,9.354758103760016,4.086477867394144,1.8124346970293743,1.2136872439352975
1,1,1.6176861480004305,4.2742313641065,26.15707078247154,16.925430321042533,10.746807933641337,3.759659935073614,1.4855002025971848,0.9938845045472947
1,1,1.7879680406755227,4.376577346618016,24.64082747093038,19.09711099783469,11.425338953091057,4.444706294190842,1.5694864730498983,1.169258171186693
1,1,1.5316553961212478,4.260215018502673,26.559904075354986,19.18867241654199,13.251045761186244,4.207232764279776,1.389777158074914,1.0996295303350279
1,1,1.5101743899149591,3.944610676880268,25.129337581790317,15.089866153677736,10.42928101504412,4.431992814495961,1.3485255610029807,1.0700002456542246
1,1,1.488067027869635,4.126167515924354,25.08073276066365,14.224724985371292,10.12302283981275,4.637934681578513,1.4714746054153385,1.1035356222272639
1,1,1.626042347113203,4.293003421276773,23.22107652023534,14.269278087287823,8.843862305117629,5.2857577942593235,1.5357714971779473,1.0141623856073307
1,1,1.753457733485548,3.6977553964590593,25.235701112421673,13.565377053492305,9.530107068461694,5.075753288224699,1.6052839045913703,1.015819116985173
1,1,1.5606941274996176,3.9837749851952586,23.39214198270274,14.00621140404332,10.646942951953156,5.153301295477146,1.6514865398133558,0.8956067915113183
1,1,1.4239620576081018,3.9515743551414775,23.13100924049616,15.059993868259854,10.778254067987111,5.045664913900766,1.7243740394627265,0.9307492586678578
1,1,1.5440330709449452,4.404917148632242,26.068126714326212,15.309547764433555,11.14059697693914,4.952448230280776,1.4839486429910214,0.9747731923637649
1,1,1.6694694459064041,3.513354421311558,23.59130022681102,14.879980834659449,11.428762921924305,4.257338284496346,1.5637543367965931,0.9993032523715384
1,1,1.7040915156562189,3.7604200446906706,24.999809557244024,13.637398037033458,8.937325325482789,4.175356222373032,1.4190470973451441,1.0143202763232857
1,1,1.5862985038802453,4.328594335519481,24.18291667283291,14.7863363893019,9.85793986877054,4.43496882922237,1.4456758324287646,1.095367700692289
1,1,1.5177224710417407,3.973965224925667,22.310725656447485,14.712236668464929,9.43770560546054,4.8571001643043035,1.5875638403165204,0.9024808940959206
1,1,1.6201893234292857,3.9265486984196727,21.551607520465797,16.07494487119463,9.446862320571897,5.0518428320045095,1.630838498225758,0.8844101314713566
1,1,1.5521708282634066,3.562572220954858,20.045392150841476,15.458546490531894,10.040406231813437,4.584654948630973,1.6018977027252679,0.9959725599260216
1,1,1.6957595655420603,3.5387162020249665,21.365317766294215,16.682413743004535,9.070216386662397,4.959645858222972,1.7238546701361832,1.0791264483568836
1,1,1.3629221865485839,3.893318053121364,21.16787407515635,18.338148787194775,9.603130793713419,5.214728669719692,1.5881666407759272,1.015760367081853
1,1,1.4322872194023095,3.990060268293953,20.763753452238163,19.405279538378068,10.24273993877244,5.069632147951146,1.5488064011187,0.9617548681452234
1,1,1.3607961818137941,3.8560177097790036,21.32991456570718,16.465970632243604,10.854423983271626,4.843642424563174,1.523933121137095,1.030170312762161
1,1,1.4774801577802381,4.088730025895665,19.81634702796599,16.60764609547915,11.13440318226672,5.452090217559249,1.7893072242737418,1.0479492193474758
1,1,1.7613893669295744,3.7951324776106046,18.69162558183156,15.616399236343097,10.690129485580606,5.311156283176306,1.686744274842193,1.1761815763678933
1,1,1.8256029541697893,3.809364431428185,20.034186706444526,14.224515283436583,10.894357098989168,5.672865607702426,1.7444370659274482,1.048949572176573
1,1,1.5890971746797167,3.549327902537546,24.312959899143053,14.641822244853243,9.941602766868613,6.057483111278384,1.953283341357892,1.074372513933577
1,1,1.7033624272800405,3.4579554322005532,26.66045541852408,16.18686105229418,10.014408670478712,5.615975626239204,1.894237978392955,1.0941233670939008
1,1,1.5760040864898974,3.2553069848582177,23.48063557448932,16.614201303651146,10.744947353778526,5.786453139077368,1.8704924259305011,1.1272596036059295
1,1,1.8077322467114756,3.8122607075768005,25.97244735280807,14.6653873259128,10.85833756569739,5.01515480248711,1.6564576635702053,1.1654583334276718
1,1,1.538378247322897,3.422921815704609,23.086071924136984,14.570013633112207,11.613536294785535,5.389122421471648,1.5029031448483048,0.9674870983902871
1,1,1.7060797237675456,4.124494317531679,24.422309936768663,14.068825969641605,9.541882753797772,5.368942845453137,1.6290059770449168,0.9601342682075819
1,1,1.907615961554716,4.027205244293395,23.335467500261327,13.02485722473589,9.353780579798952,5.122656984220246,1.5008413363698911,1.0529431952088442
1,1,1.6678896907836394,4.515463225165717,26.009643410999875,13.420608613706918,9.178120954524173,4.6447205390752115,1.375894070720045,1.0464773777002156
1,1,1.9105997505051715,4.310865516483898,27.40472351919803,15.426988526183958,10.011308466481081,4.554219667525213,1.424418098398391,1.2143139760038828
1,1,1.844553664066655,4.389678904264835,27.87676615871814,14.069712240315198,9.393953747633184,4.942622457356355,1.2664004164585425,1.1094545533009725
1,1,1.8084436905017294,4.753017030824222,30.654759393349643,13.995977724035528,9.33684322076725,4.93252991459349,1.3916849149394914,1.1527734701390062
1,1,1.3386582802404734,5.034532855712677,19.804302196518936,13.183083458553932,10.249100146392674,4.818894044297412,1.2288169298670544,1.0921336207139793
1,1,1.4925934908161727,5.1307143131678865,23.805442042447822,13.504089153545687,10.194043546868361,4.099277225445229,1.38086975105144,1.1086476822735252
1,1,1.5430855675544333,5.235498107598422,22.44822205001649,13.83884263280613,11.63008611989684,4.49248371957632,1.4286317820509828,1.1397186435217406
1,1,1.652506556466332,5.058209474516058,19.648606693639785,12.56931915142357,10.853596410730683,4.73564237921962,1.587435119733067,1.2781733877769705
1,1,1.62957322739011,5.045318418873733,20.946369699226288,13.288229795577802,11.13803047791984,4.871054004359324,1.6988407018793816,1.1697295704271249
1,1,1.8181110682189163,5.412423258048824,24.175124046915343,13.20959157078333,11.288979425232961,4.6611137349738545,1.5246355553349147,1.1381928627742735
1,1,1.719853781370531,5.356639200034697,22.254174257864168,13.72440642635944,10.71670653763306,3.8994466872651077,1.2621979035646589,1.1463026602706048
1,1,1.756445185732781,5.169825872282706,22.529238693786517,12.991887906626745,8.664965166185663,4.2829566503471606,1.309013121179723,1.1710726512304401
1,1,1.8043168454757725,5.520759325890505,23.707236485067423,13.667675738889251,9.087626380881796,4.2884263108736445,1.2323029622144275,1.1220993182464942
1,1,1.7792508921675303,5.74303180807167,21.42985085175417,13.567452770798374,9.870223457044428,4.667151415568944,1.2214678279593763,1.2564772717164243
1,1,1.9353317232859353,5.4710424809214215,23.478033594956358,14.482801948951748,10.731352844326976,4.381699824600149,1.3243067182519805,1.4498577576506992
1,1,1.878205968737459,5.145417912106348,23.146456333411905,14.632283171510702,11.256857339439772,4.192075544318212,1.3013470224051802,1.438486178985419
1,1,1.5264976645172046,5.429583946842273,23.81079514606947,15.171255703726596,11.67220148573935,4.262717089386015,1.3219962824924198,1.3692636213285156
1,1,1.6527864771569236,5.620754753489449,23.593150528625024,15.415854419591891,12.451162446271937,4.595813863967876,1.1165034407047192,1.3265333749592052
1,1,1.7836712391290237,5.949688676349686,25.779298638199435,14.322934416703028,11.748258861086939,4.385459461118097,1.177227644107274,1.3662347378263286
1,1,2.0567833798707684,5.960509875261458,25.622873111992575,15.129660198877334,12.240610994561356,4.428980283180131,1.3391285735176253,1.5811388276493121
1,1,2.0912271637484436,5.079481596674677,25.36024229988671,14.976265583460455,11.7088985610583,4.634306300483632,1.3606494559497797,1.5603372753421276
1,1,2.0331085622575746,5.5597591661598305,26.667102982727265,15.338251142752824,12.752868447640454,4.912292812310515,1.5424213347057092,1.6515807977036312
1,1,2.0708346710503935,5.1483732675694185,28.643188636677554,15.250900232467501,13.117195832336751,4.869445382558436,1.6516317328698775,1.7020969351581008
1,1,1.9912864163748663,4.507778525558333,28.103928753159753,14.829990573289834,11.672833109793087,5.502508747475648,1.7070384102555154,1.6076673632062735
1,1,1.8437367271163683,4.706264302389996,29.687841292345247,15.785697540287615,13.079451456703202,4.8348313675815255,1.439311635460673,1.4157300042763898
1,1,2.1396270995846005,4.568505275600135,32.544761919156585,15.142719415423127,12.840335207204925,4.204109024426557,1.3617832640420584,1.632844872819382
1,1,2.204497427005507,4.18560106813906,25.468917214745943,14.751662604766748,11.893706155979817,4.0743383882067,1.3746140372394273,1.611707158560362
1,1,2.044452840149839,4.214696753457926,26.42261420164789,14.099365648417619,10.537493223042,4.147490469402265,1.2456463562128373,1.504839074984992
1,1,1.7797771584471054,4.017441941466654,21.924919448725547,13.877374731819737,10.643474991944531,3.950955620449598,1.3458964159526055,1.5999539074945113
1,1,1.6737569930755802,4.511383110280791,24.63066163200064,13.017548179030674,11.12145207552169,4.299734540221115,1.5538105441806405,1.619420375040042
1,1,1.493027863576266,3.548371479592787,22.46499416628965,13.010977686170312,9.789063453081067,4.057881331057759,1.2533389422677164,1.4691878680588903
1,1,1.5160377131112701,3.801126564820224,21.10472516276438,11.50951564961747,10.381013131119554,3.778971111360911,1.2744466066659914,1.4669211806012519
1,1,1.4842598338480881,3.776329006028272,19.979753969199738,12.6707636998825,10.94268471489023,3.6777042557964905,0.9908073684145928,1.2942245901442666
1,1,1.4071209800233115,4.028556648025651,20.18728672294283,12.029764600719911,9.949419130452103,4.016877711616999,1.1224369267655412,1.3500165858738327
1,1,1.4931399629084208,4.098372630956133,21.542498594467475,12.12697409276759,9.062695282929932,3.719454242652912,1.148975457939783,1.469661362400943
1,1,1.3944686043159145,3.4273817724554356,21.07544114490061,11.993429579946671,7.970780621036987,3.8108014769083542,1.251352612799634,1.4369556953475753
1,1,1.7255876798170589,3.680557442287794,24.62464617088505,13.734214278295525,8.85856560436967,3.944779738740489,1.390647268297832,1.574058647326037
1,1,1.5812251855871606,3.922894164225235,24.050873007074173,15.433523209454172,8.41403577745208,4.23333089397913,1.316748392807104,1.4366477014102284
1,1,1.67754720503497,4.281695005139971,22.389773258613616,13.908354090652791,8.477688564064628,4.449846070199104,1.232876448186219,1.3956971983442918
1,1,1.613587261792013,4.38832498205812,21.125646571556473,12.716921738372388,8.808561941265447,4.402169557610934,1.1228095438076497,1.3630958113681126
1,1,1.5639188666188912,4.231172002049414,18.661311566468708,13.19132853612552,9.339433858161044,4.05397767959435,1.2789079426985113,1.282704637148783
1,2,1.367066385011711,4.2673096682126515,18.66911330086538,16.636721579106645,8.660082169071888,5.336048998721979,1.5997088142073783,1.2724196373950665
1,2,1.494726269559777,4.800884554543318,23.231395736476728,13.854208327483953,7.1256420132517375,5.111755870525773,1.4660525517133172,1.1645422861567956
1,2,1.6410478736507423,4.612795040860799,22.64662213728389,14.350416249368253,7.690165509462636,5.050713339802146,1.5828945811951791,1.2772855920626511
1,2,1.6852672702950875,4.88567208950275,23.616996383352355,15.394153047630331,7.882521302888351,5.074495555574408,1.465098607639622,1.3134782776851237
1,2,1.515643550789119,4.351444948666533,23.897198144773103,17.49396185312396,7.068728118427336,5.653150603504408,1.4762350804221227,1.2929145537487046
1,2,1.5109477132959006,4.614968921007385,25.15861609983294,17.17290145837166,7.548344062441276,4.997756533774542,1.4130844971988534,1.3516305997763884
1,2,1.3179461120728992,3.725017155124608,24.708540137122547,15.858546983093053,6.02157473507272,5.127132317893744,1.5571403290568169,1.4446811382712215
1,2,1.3085486162792606,3.633442012386795,25.341287323563485,16.30575019888343,6.407030897552422,5.1359470830110885,1.2953450064863499,1.439846331134539
1,2,1.1799010607650122,3.671334926343592,27.085614380612302,16.267326095201,6.926236416647073,4.220532581477318,1.080795464301606,1.3515093606481026
1,2,1.252066900571236,3.8765120108715347,29.97068250655774,14.135937448689772,6.733367561347199,4.234234215720583,1.001683580083141,1.2494291487119964
1,2,1.6866253297748666,3.679313759351975,25.05140689096186,14.188517916356027,7.246084677377619,4.139823080410909,1.1114567167933636,1.392313750454306
1,2,1.4626005297617288,3.7672503151649086,25.923187479243857,14.74344526624413,7.42544539748706,4.059044483435276,1.1566363429156838,1.3025160256978714
1,2,1.6226127049763162,3.46554398246844,23.80385955194929,13.434274676856422,7.771447474575935,4.422458231904116,1.2401188645446655,1.3181754532064396
1,2,1.6892024483164703,3.424591426639738,23.921898653859376,14.58812225318891,8.592808599514592,4.621998644373858,1.4126328387990383,1.3703957558279862
1,2,1.8510425373176398,4.1381090696822165,28.95034376429164,16.87432858432765,8.612113233985154,4.090182384595454,1.5047310843605974,1.4317932905866237
1,2,1.736124609355235,3.9828155099438396,27.660275305575613,16.361313247536785,7.850496856212857,4.098288822964086,1.4899261909915469,1.4330992253902326
1,2,1.7716095957817624,3.7437828301943505,27.30792005197673,15.22660569469713,8.292390324421334,3.630606440932665,1.258619622654809,1.4472400863584665
1,2,1.6907936216849502,3.216628126102624,24.130054092527768,16.383487656793143,8.714600887429295,3.7767758306504486,1.3001688501627013,1.4247082901277506
1,2,1.5715642875725613,3.3714989152735924,28.414263275315765,17.009313570789725,9.121759605998946,3.8043093963169183,1.2593223975065957,1.4372432135343916
1,2,1.6369530786640414,3.0522301474918354,27.407626459247716,16.575946171985287,9.303292714401126,4.276105846958397,1.3527646094910704,1.498583632339197
1,2,1.714681978367345,3.2158746760741077,22.492012478038742,16.122482797760515,8.446017995358304,4.349090265592822,1.468168684147411,1.4262664174582103
1,2,1.8087171032407863,3.317243507466535,20.91643730558233,16.817401318846898,7.815690433926694,4.617568135947248,1.605626456012474,1.3204830678741308
1,2,1.6920213942259081,3.1520050347375013,17.229521536414016,14.825452378275454,8.290050891518776,5.258162580590802,1.5243089471903641,1.25214228900066
1,2,1.6576407324551254,3.385041398206288,19.682263111631052,14.975667717196805,8.314698385159245,5.144901488621671,1.5422109849809589,1.2952841236564756
1,2,1.7015345162429556,3.552075923754764,17.382918641133905,14.926093427341222,8.406913120433442,5.68708106827257,1.6319657084222927,1.2504156224252605
1,2,1.7612679060310386,3.49833457675684,18.90206437851868,15.59990861291506,8.317331261449283,5.455269535248785,1.4863735898349375,1.2734439552822419
1,2,1.6997058973117787,4.039553647955164,18.701387469317435,15.408876192523694,9.650092959448866,4.872338012011004,1.4833837877640423,1.329966331142352
1,2,1.6145433941499794,3.8477135579594983,20.107419710912886,13.184612443250826,8.65421457993247,4.794263663854313,1.4795400999796087,1.363162803792829
1,2,1.4499734967146738,3.438985689662727,18.711159150851113,13.71139600612461,9.615311596120787,4.362875215846751,1.4227182105369343,1.2764144961031823
1,2,1.4067956194329347,4.175097234746426,19.68613028735387,16.391994413336253,9.185308071139152,4.196610116130363,1.0701910974330897,1.3615010099243388
1,2,1.4686951947448657,3.5494216415625623,17.561767856679207,16.158171372037042,7.558436045839213,4.311194310576454,1.1034085576082235,1.5040979700101
1,2,1.4092759814990892,3.856261894417921,18.454405871553792,14.889950080013396,8.317419367743396,4.121872991528689,1.1857359693766278,1.5744961761431617
1,2,1.3128131655275312,4.094703284695953,21.37620460556971,14.255934149892324,7.8998291160033975,4.241897521047773,1.239048712274271,1.47531781939597
1,2,1.3131797375357135,3.8483947557894456,17.258444010622195,11.846929222460481,9.044097056643958,3.6120334318438916,1.1922271082716607,1.406387492881776
1,2,1.2567386843355957,3.3361415071542297,16.97893861631826,10.521400614081191,9.366814059743215,3.8266349773152184,1.2565310447933258,1.2668013842370918
1,2,1.4170474982532681,3.9103537091622274,17.31019600550044,12.25865092241122,7.970964661015028,4.056426057487213,1.4547728593879685,1.2321281838755231
1,2,1.5484417260938699,3.5842775218853236,17.25119866126276,13.58111624126532,7.589059961156368,4.088097880807406,1.2791063593788379,1.1474887625754688
1,2,1.8636377317729955,3.4893503622505264,16.842182512836843,12.684270609546688,7.1019199517045974,4.136522975515702,1.4771381732637376,1.2938899783224358
1,2,1.5561666891322374,3.4884568658366844,15.18685940566661,13.181682304602358,7.108996383325584,4.356853991960421,1.3450491836278928,1.1421820277791475
1,2,1.589079254663746,3.430339592925079,14.881976541280546,13.726782591176208,8.296906524228545,3.963018041832516,1.2410690827109851,1.284996527224769
1,2,1.5698903675597382,3.7662614394778053,15.861067953513016,13.623149627969871,7.542734499264732,4.399780617691012,1.2495369588314222,1.370182066468886
1,2,1.6155020071951012,3.6358944679225047,14.840650037894461,12.528797889666507,7.706720722188725,4.578422672068706,1.1942293762225908,1.2229580715122894
1,2,1.6944312432533433,3.839531750727235,15.335942075010292,13.031320465150504,7.74273288195316,4.415330558656384,1.2046157055132056,1.273430163778094
1,2,1.7086138579042638,4.186802642218213,16.94754076550054,12.983966982952017,7.80307406522962,4.8252297225247505,1.303335607574667,1.2800200233845238
1,2,1.9188011318359186,4.25852819622514,17.540825299491697,13.63068605340543,8.069281408409546,4.700260805008926,1.547240163482645,1.4502817698696113
1,2,2.012414508676473,4.079938100027079,17.128432807848686,12.175126257233952,7.006866640277769,5.035083703053216,1.4830748423337066,1.3173922126065116
1,2,1.8616820364616777,4.184451736134728,18.237538186774525,13.181320402129955,6.789510300160717,5.029100100624885,1.5645185235399355,1.3284640541269614
1,2,1.9238373231687225,4.384737325191435,20.445555439487904,12.988449070150464,6.9124644395235535,4.482853834846661,1.5724310977956082,1.4323386882850786
1,2,1.8896504669661873,4.337405253722144,21.295263158927195,13.24183443157148,7.59918188023692,4.5593374528924615,1.5796480920822606,1.3585553000496042
1,2,1.859344588242016,3.885223108909023,19.417965790976588,13.352725026624494,7.715028379224476,4.686510989319929,1.6890933990828039,1.4776181132736674
1,2,1.9809774032652774,4.363956443575075,19.435352814354367,12.9039100239753,8.766780482967002,4.619204609458594,1.5484420799674183,1.4864967177103787
1,2,2.032601930142734,4.2402329774848,19.887941794847293,14.480321521670493,8.444677408871035,4.28138819859363,1.4838124373718864,1.478176631071787
1,2,2.064786899929286,3.8380716889453232,21.119112141086607,12.071335388204096,6.941671968836312,4.4218982095898545,1.6186756183938116,1.4616846745646361
1,2,2.093536207969269,4.0711012815081284,23.676865247964436,11.343993155018111,7.229567557697048,4.486481231531426,1.6099348848773296,1.5775467017766567
1,2,1.9802270281290562,4.179833880530897,24.400139488285,10.129148733450808,7.972911351415353,4.436750115454564,1.77624255860625,1.6026300056178473
1,2,1.8599715651985163,4.527688810178631,25.879401449077694,9.572968140168923,8.461930215936832,4.6856530880871325,1.9157927244589108,1.63128730750117
1,2,1.861309371694308,4.590855690112825,25.468005351783113,10.284946767864978,8.057664516132787,4.4921325325873696,1.7848816920737176,1.6677018485783974
1,2,1.9709768724338699,4.425783446832445,23.241520633307662,11.34054580042621,8.302096256572943,4.882676411415765,1.788858910479127,1.6080897797313685
1,2,2.258314731809904,4.492852943830474,23.52909578685894,10.234550698554154,8.447491011633645,4.695274946641035,1.8345053745910396,1.7338056733974274
1,2,1.9913211208065955,4.845498869007152,24.92746931649031,11.388353422747509,8.69307189671554,4.130391576741905,1.565579043134026,1.5247662459783184
1,2,2.217414970980592,5.387693821815827,27.143443616061376,12.384421844513106,9.69920681287617,4.4041590500008425,1.6550127378334873,1.4986788287476105
1,2,2.142319531034081,5.502573549410532,28.884397849058406,13.389856876818962,10.216551267667253,4.794262465879617,1.7000810935877477,1.4293194206518443
1,2,2.2007316416020624,4.912040871269253,26.878920372995786,12.206469409075336,9.969325609885507,4.652733270475906,1.5442539733435907,1.5216252943709954
1,2,1.8639989495766,5.3332121599474505,27.42164236310282,12.241318807642974,10.102293309699307,4.549496590640901,1.3624099408918922,1.2781164355289043
1,2,1.772873748298688,5.559407285782452,28.23936495124916,11.994815678090989,9.532381320482745,4.717320232214466,1.335251871486885,1.3165800801443492
1,2,1.7642229440628927,5.345823017848073,24.516630905187128,12.943266903993354,8.950269230280632,4.331297126419607,1.398272239855988,1.31822758034927
1,2,1.6265783070145556,5.179712327671136,21.7747635140707,13.21257479808261,10.015930297891625,4.627542379886366,1.3447498520741217,1.3438465133424018
1,2,1.4726124215490366,4.916721578673402,22.930683095770085,13.388846895690822,9.387894707512126,4.813409968781744,1.3121877049229278,1.1241326531840177
1,2,1.4596692326687732,5.121980368786443,22.791695332141003,15.072326392383017,9.411707825730314,4.828679991385788,1.4612560120761566,1.1245175433503793
1,2,1.691702969141045,4.582462893949585,19.387158084020516,14.307764208261014,8.69239417816204,4.628407272880748,1.5975990720354307,1.27469404443911
1,2,1.458167397399824,4.1400394203198285,18.589350285411143,12.953362107615373,9.048173581315897,4.627856786350747,1.5814396586807102,1.181904934904331
1,2,1.5016084089622574,4.123358051361017,18.217895410478206,14.296948744306134,8.55281921026618,4.770357148425338,1.5508674369814426,1.2015122068483823
1,2,1.457431650165017,4.314768961165163,19.829375164807143,15.634490259067569,9.097211595555347,4.654273484942421,1.4728129186293544,1.2270705242064217
1,2,1.5391241767033725,4.275209714529302,20.53911827945884,14.473187556847382,9.422830325622481,4.691134432033355,1.4597124502027952,1.2696971628167506
1,2,1.5207090753643044,4.377311544515125,21.44029656698059,14.514692154124607,9.545349352063349,4.41257565986308,1.333500181387191,1.3351257471458071
1,2,1.611326649301709,4.007308876489841,21.683185613846966,14.365690699050875,8.453813269261538,4.940236765072367,1.4037721878840919,1.3132929203572503
1,2,1.72677099071118,3.756066200181836,22.592221330160825,15.828977667454259,8.212994296900247,4.651127769215346,1.3779463413157464,1.199296704427264
1,2,1.5530487283805512,3.8970580866483875,18.608833344989336,16.31086783356336,7.584474736754371,4.059512102900138,1.3474741987090644,1.242282882959971
1,2,1.6176140050001664,3.6777512811194737,18.281501697174953,17.56709776228891,7.7860029153736745,3.9385101306801436,1.2027769555499765,1.134426283125653
1,2,1.6820894697264683,3.4130912452075917,19.03043582721424,17.975211472859254,7.734917902456901,4.316924473531854,1.1800385585904416,1.2426754273247387
1,2,1.7766446212735936,3.6411139150887877,20.50855126318,19.38151785851295,8.252483609349479,4.0742165983984435,1.1992837436718666,1.1564958893649024
1,2,1.7361107437892576,3.7011055887660165,20.125153705557963,20.405718502994656,7.779869390326376,4.373885096068734,1.2987235803716697,0.9852982708809129
1,2,2.019237517819499,3.9892863374628216,21.46079600171218,21.50037336742887,7.480889238903349,3.8795877357304906,1.161060487870073,1.1171083462877434
1,2,2.0604007993425077,4.048778723930134,22.040312141998875,20.39762966640207,7.7682818373591775,4.01627625038622,1.271261208642996,1.1973959745911007
1,2,1.7521616180172435,4.118792025440467,22.96816284499183,19.684382203322002,7.726133943214406,3.966822474603533,1.4274058998215287,1.1077151841741797
1,2,1.731743052919697,4.4239796095941655,20.57497874728192,18.040341463065822,8.424318497913049,4.188019831427199,1.3560270317436245,1.1802617058679359
1,2,1.8465704523421083,4.387961767483216,20.19326968272635,19.75248593487973,9.21394750723871,4.135856210262632,1.4660033417225868,1.220834857643885
1,2,1.989378346040811,4.58545070940096,20.167247448164733,19.70602723830918,8.888015035828216,4.346130620251277,1.4905886296981115,1.2152865664292398
1,2,1.8412913737969148,4.561996631618236,21.313448914852234,20.411903104380226,9.325170670621723,3.731269957031284,1.3720841201082792,1.084174443160437
1,2,1.8153472590032924,4.102032473613791,21.033170470637593,20.60798550701203,7.80573536127376,4.133272918466915,1.4241241933439814,1.117307622928472
1,2,1.7339646941617846,4.249831959139035,23.09592580488588,20.71423102527801,8.661041991505815,4.343094265974192,1.5154195578145677,1.1749998816304412
1,2,1.7759828399198307,4.121228880368457,23.010660097308286,22.21198617396094,8.364331030085445,4.286666197674521,1.5571930624138852,1.1709836852830104
1,2,1.9469156146294644,3.9725362565159066,22.65366770397733,21.345378724390695,8.780369725062554,4.227058954087643,1.6736748328208595,1.2643668740361838
1,2,2.0321985677487726,4.021000517397079,24.30648429515342,19.282687740086704,8.468451720472265,4.510249739239298,1.66389624319026,1.2119610277933277
1,2,1.9973785429081425,3.7168708211305597,22.51936071481004,16.652453607065254,8.022795906649066,4.663319443385552,1.7991140621766477,1.3407194329599597
1,2,2.2083905096405214,4.00227474282648,24.34855353081744,17.283112103572613,7.714091922714279,4.951955727058311,1.952877458809835,1.44903905816792
1,2,2.0309730726502373,3.5409975707851595,24.994203642632115,17.915554320245466,7.429148700850302,4.7863641595752195,1.7712129060408344,1.3991166200993468
1,2,1.9517713305734794,3.6959478174809055,26.956666638755756,17.670719884195652,7.4675084315602405,4.255481911486766,1.4752233371326455,1.3432161277706995
1,2,2.1196410122864537,3.9531613539603567,25.4642292119882,17.524805395189233,8.578434000965178,4.554366204925407,1.5820204937782734,1.2384315135055362
1,2,2.0558037848702075,4.0153381419593925,25.568529694011648,19.163741034723696,8.143993475070191,4.146001913126648,1.6270608556788408,1.2104059414659003
1,2,2.125595954206854,4.355199488124892,26.47730544438973,19.376758099643382,8.718901025029908,4.147469271354301,1.7510719496630722,1.2557753257062625
1,2,2.337840262462199,3.9047476038318765,27.61645089825974,18.11496743795971,8.336761842949926,4.186403783157657,1.5301125090301768,1.3332242004247488
1,2,2.253565690370544,4.00407953432505,27.442747454929183,18.544829462345607,8.999656651217418,4.409254618993234,1.6287705696645332,1.3059033276002243
1,2,2.211667648660373,3.7413865092237875,26.254593311830984,17.43916134206305,9.086073498410359,4.18971207260997,1.4694319034382048,1.4031775734182652
1,2,2.2363913335292036,3.9687846353240053,22.84371336509605,15.14746217020493,9.041734698889824,4.2460454459536185,1.5126167464362255,1.4040020078291342
1,2,2.4653364331700187,3.830547722389781,23.12765683771714,16.231193548567134,8.641239172693668,4.573601377743925,1.2851172383091325,1.2694406072424678
1,2,2.257414780061205,4.057003979419537,26.43230267086537,18.32303935993258,8.544397055754116,4.46049185961104,1.2516877483370878,1.2874840727093677
1,2,2.2452417480298195,3.7211079514094174,22.756381321077356,13.309543548864418,7.548646337382566,4.5857545106386555,1.374352395452292,1.393011140637428
1,2,2.386222994601447,4.18460450877489,23.5998366648008,14.075638669329004,7.174554087126125,4.68652978763697,1.4440586208569703,1.4242521745286922
1,2,2.375010888826661,3.7577670513066272,26.060462017972664,15.631190259781112,6.746258364042471,5.119024469226448,1.553100292590066,1.3279265311454225
1,2,2.13479259514222,3.5631844457630435,26.31995632627937,14.541135034170726,7.0545863916808935,4.7203154009336865,1.3099816059562974,1.237284236062095
1,2,2.3555424150054467,3.910054282201179,23.173870651558243,14.915270506436418,7.165084368796625,4.324077968912552,1.270456657652627,1.2873951554008891
1,2,2.5733120536466587,3.801423175003723,21.28130429849568,13.985071934493128,7.678731806822259,4.543146887591088,1.346715373910694,1.3251392885306275
1,2,2.372409237488537,3.7524163641531967,22.26160450909085,13.49855686202355,6.977521991834201,5.0078375967605115,1.403287564852175,1.3401658341673266
1,2,2.23373827753024,4.090394753301381,23.901152813182538,13.823365137773104,7.9478222426680105,5.495817002039673,1.4005083469652213,1.2634647517954525
1,2,2.222522822511326,4.359457835591624,25.10344462087187,14.30529990963412,8.587557079284293,5.266610945520458,1.5107152328880744,1.330264796675573
1,2,2.0842757737117585,3.5171959607448704,26.103457330144536,14.443967045537699,8.24160764119521,4.5031499313813965,1.3827612995417413,1.3434661847697666
1,2,2.1914045836732794,3.447722439617298,25.90562842045789,14.903608194008953,8.626589643659953,4.804190024318369,1.4121913203848486,1.4347342230859281
1,2,2.217304313066036,3.4569563361647484,21.387985070085353,15.938731311895769,8.514604260885857,4.87363970817077,1.1634274974508625,1.284819782635955
1,2,2.1133969108945103,3.549092092976455,21.645387466739287,14.330721882818759,8.628050695981992,5.0387720509644875,1.2881857658558526,1.1433216811695959
1,2,2.0561082712095,3.7578646128038713,23.020608357663217,13.795294639982805,8.726599195296753,5.600964129855224,1.3939928965544834,1.1614842193835553
1,2,1.8304110435446757,3.911634891587865,21.823203283445288,13.157329335417181,9.432711988903385,5.582770043606719,1.3096239216342334,1.1836243699916351
1,2,1.8733941498955704,4.242932150416561,22.35324905600152,13.14092308439479,9.881839036780399,5.284898785151702,1.4634776524964241,1.2405871077294062
1,2,1.9169173991879835,4.209189455898461,23.357727378871907,14.478905606876124,9.876610903069158,5.311523036500246,1.5556141257954863,1.253795228444796
1,2,1.8711051561647076,4.454702861356188,22.42379477528324,12.787360504620214,10.304507724099162,5.236013405352991,1.4337142103659746,1.2421178069017882
1,2,1.8439014698432108,4.487897132163007,21.290443822809564,12.499782146623794,10.550504525567993,5.639817061098308,1.378868151937249,1.288131751831592
1,2,2.0997831727803793,4.617712252209175,19.868871046849726,12.079097764653664,11.422728554572313,6.076225618906583,1.4526562541812225,1.3806457286496923
2,0,2.453190525347669,7.106016428510512,18.887287431828792,17.716732532087114,12.168553759487299,7.019264748768362,2.2798357322794307,1.8203308729286325
2,0,2.5902530863065607,7.6320273703008255,20.234886027222057,18.019170394366,12.016898612202484,6.922044255648824,2.2518367336385103,1.9549709353640774
2,0,2.674938122567233,7.6867044092560235,21.16035612298798,20.63524195924291,13.727687097183368,7.146681180660113,2.2379246681155793,1.8942803913615682
2,0,2.867164793212888,8.051799117469983,21.945732127149885,21.213328406652725,14.778334134118808,7.356993029861636,2.463842624348878,2.0108118527341152
2,0,3.05576099865716,8.07463086362464,24.069764212410167,23.3906296335406,14.379542022325026,7.878711907219328,2.1993206680779367,1.8299728886481499
2,0,3.0844163945285823,7.764093463167965,24.933855515555386,19.57420032562573,15.203960663503695,7.8538558044986315,2.3331217778484983,1.8305206508731895
2,0,2.7618921004943178,7.790820882364699,26.419737678844402,18.26853514627549,15.317611713952962,8.059715801478124,2.3489697244398973,1.6654650071379273
2,0,2.784693593926317,7.782764885812939,29.078643668500472,17.849708245205015,16.877037867800322,8.295470098216601,2.156255344214516,1.876003344424494
2,0,2.45147053309476,8.104660369751318,28.58864908080804,19.305479957492945,17.062789186955026,7.452225249556136,1.9723363353758778,1.4502889248203599
2,0,2.4719650497393624,8.05106896591531,30.821446237935536,21.14931038596949,15.695758949490028,7.372226894251855,2.1243971709581375,1.6027571177744397
2,0,2.7107421878002675,7.272112174844022,31.77845770708323,22.127685260997517,17.63802847840247,5.665703380095906,2.027665327741181,1.7045676315576166
2,0,2.4877407774650324,6.670538494651626,29.746601260306335,19.537648804764036,17.638066422604886,5.995477558560159,1.7152508215976467,1.5607801437309312
2,0,2.3058515216495974,6.551405919818437,27.2468868722165,19.509328706805686,18.00289162569176,6.539130066229483,1.5894936982397412,1.6821176698535714
2,0,2.457100464130391,6.237934706608791,26.74200143343175,18.76545413600851,15.520725229827962,5.9542459987989425,1.6049492104443497,1.7120983907774354
2,0,2.6035090943588153,6.623692791781491,26.048522252287455,18.62208622231888,15.280563344353988,5.90618806662758,1.5208210487119687,1.7650779072230307
2,0,2.660464949412172,6.724370720425031,31.442893846630795,21.07512726029474,15.144235082976493,6.507029256447569,1.779235122784879,2.015450623500726
2,0,3.1797790381493396,8.36285342196382,31.298229883480367,23.05907139862524,15.926900001901839,7.140379988477803,1.8941056301846104,2.0844289258116833
2,0,3.562470303864716,7.593752643748288,29.17892894883124,17.706324728426377,17.179893253467604,7.717006886387836,1.9832223991845324,2.1604425252315194
2,0,3.1411841257564896,7.541519834910172,29.925415714769166,18.815932099105638,15.599364421643156,7.083666889358646,1.9544373062985634,1.982511856911026
2,0,2.811880806825589,7.923216707394125,31.12169846698426,19.576648319678203,16.11320446947888,7.216106923256254,2.0826992848619446,1.877995663249405
2,0,2.781793330244836,8.665367249517365,32.64649530498029,21.962172788946024,17.051375973746797,7.532335164905502,2.0820299956535226,1.7945352889597865
2,0,2.847718671842642,8.585804648491607,32.062066185028684,21.365252490063583,16.460537828639524,7.598336581095309,2.119793830789311,2.0672378036799324
2,0,2.8200976597195764,8.463052276892542,33.914885043612834,19.500088321071445,17.56180066665076,7.468875649543774,1.9993088683141413,1.8636700059840647
2,0,2.2330954322057024,6.9937901287289135,29.14821150701983,19.051837457395,16.113340828843445,7.063918281290645,2.095915202656473,1.9235614104191678
2,0,2.4833963182347545,7.101253664426885,30.926656171176464,19.152173399313078,17.745842756859197,6.5893286072258075,1.999380949126995,1.722046283998991
2,0,2.4739397409157164,6.765724300746537,28.68195018362632,18.582797836011277,18.451142405839832,6.6125506533018665,1.9358070165141756,1.8231744007552195
2,0,2.618996210780818,6.481520471218935,27.47126739410911,20.020418507263187,17.04228072730461,6.093143977447039,1.8336284429636165,1.9235594834706262
2,0,2.490547486647675,7.081043793510176,28.348493921019077,19.92279903975108,16.760770582644252,6.628892627899368,1.9916436855767925,2.0380977037839347
2,0,2.5731471314727816,7.637249509709952,32.7615504853964,20.411934475313423,15.710411915964698,5.84387505730867,2.0747930776657046,1.979391199239361
2,0,2.7395816891252163,7.784828114270721,31.809846076605655,19.794090115418726,14.397783421211956,6.128130611785133,1.9675144110170635,1.9618345366186047
2,0,2.5576335028083346,7.667714428926419,31.31236630974328,21.183035246376857,14.037055015716295,6.050307022132009,1.9424581255666964,1.7953915438307881
2,0,2.708063478042986,8.053832240055982,33.52733134690335,22.26131403131507,14.758874078610143,6.495740622494498,1.9127653210231765,1.8997382990386746
2,0,2.8302343571802497,7.986077824825878,35.895912441320625,22.411641874350007,14.582968217082133,6.596968935189704,2.033957537684776,2.042355561507885
2,0,3.0470086479694265,7.264300359378888,32.5382644393406,24.720050959086407,15.40030055252384,6.602749765631747,2.17803659052319,2.2301002228612687
2,0,3.2003043325984453,7.725615839314714,29.12124033211107,19.035987375325377,14.038690098409544,5.577807328190688,2.154115567651788,2.3171653013959874
2,0,3.259383717634948,7.159483798560827,27.794631167881946,18.53860176855543,14.594635157786938,5.8631500532669,2.20116619971584,2.4715773531406953
2,0,3.034636371525734,7.440513195763672,26.079064588258515,19.827523151942376,14.62352888072468,6.1787677162927785,2.1940851076245322,2.415145230762002
2,0,3.0647913467771604,7.4962231368360825,27.361540462110764,19.884658326913875,13.293522212589417,6.608536244914701,2.149513906423618,2.263535320464449
2,0,3.413218198011976,7.982614971081715,26.66660585845437,21.20050677400516,13.953024078268005,7.043344527703147,2.22455902951318,2.4413449794264537
2,0,2.974300305822414,7.854377579358157,27.057414221114733,19.787687778110286,13.805805860914,7.0031543460228365,2.2949988699939436,2.2252673204064353
2,0,2.6905867419477105,6.913971554786286,26.700919324085017,18.509552555635686,13.626987254482112,7.325157416481728,2.1181749078884535,2.1375658023994943
2,0,2.7402584112192225,7.120418675443437,28.108765332026927,20.337720840013343,13.509948551061036,7.718387536122072,2.142554643485767,2.1587204862081704
2,0,2.801170013290447,6.773982096783252,28.74802151787134,21.713724942091392,13.936581517069593,7.9298595872668685,2.384079465313599,2.1119712714135543
2,0,3.0570081182574413,7.024072017759064,26.45285369911692,19.334734132587858,14.391323401673697,7.41404404703221,2.437626127055265,2.2453873464436698
2,0,2.653929307752475,6.259791958817396,24.080286853676018,20.44005933660204,13.926005029381088,7.481601444016472,2.234559147875654,2.0405721826481753
2,0,2.751661728703468,6.39617478046119,23.70279042470983,20.855302895979097,14.04449871586149,8.061904253072282,2.237567876522472,2.0996820649786367
2,0,2.819164676467217,6.659465147737917,25.667770214324598,19.709463006016144,14.621959063686324,8.943821168762268,2.3409575897868833,2.1282950507943124
2,0,2.9254223175191387,6.68064628646043,24.813076386265873,20.724086816084295,15.034222436249316,8.308093929207208,2.385244383379579,2.2072671030660755
2,0,2.885717984816831,6.921603610410515,25.80827190586112,23.044794699018126,15.371354083437287,7.282094652041574,2.497870792569659,2.219308793532815
2,0,2.9621957672184913,7.288750158103189,25.28375870194453,21.546219889135884,15.804523805841507,7.753586232786989,2.4216935339946413,2.172480835065865
2,0,3.197944183056722,7.757339424369001,25.90681423361762,21.052076513021365,15.497068698298028,7.036001509771943,2.4001472213711614,2.233237308741062
2,0,3.476548557028888,7.622886182774145,25.466030742271144,19.865292903760064,15.99112437090779,7.198848591276746,2.5696337145904837,2.276810592190157
2,0,2.889276694603249,8.051054306723797,27.815474547538212,20.566566722414308,17.014577133525645,7.2691199116110115,2.440282281129263,2.056074910586808
2,0,3.18629221896841,8.658590293319667,25.961896027181297,20.436053764159197,16.823924795733266,7.230524025603825,2.5421644967051567,2.2833489183913924
2,0,3.2073272170881872,8.921740676083166,28.3816141679399,20.538624461357166,17.455012922974692,7.548866224488145,2.640317216833623,2.382874518457402
2,0,3.1115219205550844,8.9708838918533,29.84946521913264,22.363468119784965,18.50364965044466,8.192913160637515,2.8052933712403214,2.408877577649351
2,0,2.970102321549838,8.671613861740743,29.445002869378555,23.186873022954753,17.78921198013919,8.398128089191053,2.4827991884068847,2.2507053893728934
2,0,3.1622096367968635,7.992363076483575,27.90517367228405,22.002867975540997,18.73868352744339,7.938742978002717,2.5938972255844273,2.2921761847577535
2,0,3.1115414029429727,7.69149422538186,25.28537731365072,20.51082950006364,19.5208151467396,8.184776733700197,2.7806821415983864,2.2877591719499772
2,0,2.7167870060980626,8.090148774397406,25.960763726703487,21.747926117852902,20.254355752352748,8.038831974628353,2.6895285675039755,2.0485645617545107
2,0,2.6652294523748994,7.331057224378256,26.560642959912542,21.15488510432278,19.839852810857145,8.60488667399517,2.5520767279796637,2.2105223183746663
2,0,2.4648372866479065,6.91129062102717,27.50765536618842,20.395747989234703,19.259004580555345,7.80945955558545,2.131097738085085,1.9526840554215399
2,0,2.2523329176770948,7.225823645500776,29.434575634109766,21.144221839967642,18.839935371636546,7.307438047687287,2.0861996131928455,1.7321094168033704
2,0,2.2731418816139,7.322975800471871,29.62415516939007,22.10908388403614,19.31650324881852,6.506759323296601,2.10369772892811,1.6477632076271844
2,0,2.431014342261351,7.447399902747914,27.75341660415297,21.24536683550343,16.299027403289703,7.034922732919129,2.196926609560219,1.7401566859273885
2,0,2.371524899071415,7.652528369885134,29.09278171449976,20.857838786782686,17.167813562308616,6.648413806593828,2.043156887755056,1.6308542224769467
2,0,2.3213693632626766,7.0314634370944376,29.72647546651116,21.608503432590915,18.082402325681077,6.741568610241264,2.012893593653536,1.6860453806459295
2,0,2.482280271878615,6.90172983510701,29.99687154798228,22.08163740693914,15.400454036277974,6.085569349968385,1.9913133047519929,1.744292702458928
2,0,2.4936578870723847,6.925460753427984,30.842450890863667,22.83945326204566,15.54571153938253,6.243800849884409,2.178806984023239,1.9731441960567435
2,0,2.4317293759352987,6.462372318079544,31.304619840778383,24.716431532814486,16.650210339545378,6.344714086191676,2.0877661155994494,1.8176444848250284
2,0,2.472157868775886,6.743808912922392,30.93785081653421,26.567852222454395,15.835093373733002,6.6372700132630245,2.1124849528178955,1.93271684941859
2,0,2.6284033038900354,6.284942375267359,32.76285164471538,20.804723054566075,15.767848466729074,6.615494064927212,2.2599240292426335,1.855435900480584
2,0,2.5467293078320035,6.26348960830168,28.14167940026706,20.656010927258865,14.274615137334235,6.511388720962605,2.1709395242228853,1.9004066128273118
2,0,2.596170441936346,6.1098308909180785,26.66665937924115,18.469278221339266,14.295011537009135,6.457812777810658,2.0593814783496156,1.9123474410749295
2,0,2.661389141072041,6.375555792264087,28.1552272381109,17.770510637495278,15.006620403890727,6.598877887101459,2.2283958494410525,2.0090490065808955
2,0,2.702175286512229,6.709472648928384,29.12325549594646,18.507775472613904,14.833842153663998,6.548567897515003,2.1285052918819,2.066622290739032
2,0,2.751583705599488,7.257504343689172,30.18550308021298,19.25027677929284,14.77471640735241,6.489052038251634,1.9990714848162308,2.160906048485869
2,0,2.8002918645886377,6.796580072039177,34.348991491827384,21.33047081440049,14.19606713113051,6.261172822746009,1.906849847546049,2.116494019682401
2,0,2.7239228492196346,6.845389491004978,32.47248241485676,23.406274072007083,14.49873981903056,6.575224071484423,1.914239187517262,2.0029377375389443
2,0,2.8199455759387244,7.382230903431332,32.138731925718666,19.7620180216721,15.847373353805802,6.167888674298407,1.7713016304157398,2.042655645372147
2,0,2.723189358558013,7.192583757992322,33.02791108984197,20.568292207048337,16.047588898365927,6.046818099409904,1.9535291986786518,2.0301508777371544
2,0,2.6916775408884237,7.621468433680138,32.69798288663122,21.2868093916736,16.377599304187783,6.230799201200387,2.071749666261183,2.0944195529149865
2,0,2.639475128908726,7.949507859998523,33.224212439946974,20.794877292673014,17.450835650842,6.4741212333291545,2.012604561602048,1.9550193085070127
2,0,2.7024970645817916,7.649818221436798,31.616679779945834,20.369154564354815,17.182035758538944,6.33003374141415,2.1531645950202494,2.0144761228130936
2,0,2.5789645571785926,8.17342997931867,30.404038213577795,20.861935059622994,18.434318251941995,6.472304271461,2.0977398516883694,1.9814012295820116
2,0,2.698307904075665,8.630660281499326,29.539906719632217,21.644539148844345,18.004661784573784,6.323586116163933,2.1670794239171554,2.142072824101931
2,0,2.838292622423944,8.215253383695137,30.773046232926923,21.835411859451643,17.204498597487916,6.973023809454193,1.867696440406753,1.8390620401465383
2,0,2.724074171138684,8.214749903252164,31.05369720967694,21.37110137128147,16.74773554577214,7.0727579206951985,1.8821824945011285,1.8082105656228047
2,0,2.71816173704103,8.92730452980602,32.039505895123376,21.44698132952428,17.124867988059407,7.1682315760887025,1.8306614403479975,1.8948781511001433
2,0,2.7244374892863394,9.187816274668808,32.191252790795524,22.672683336856636,17.10424234708528,6.975988034950699,1.868610147954741,1.8604272550429757
2,0,3.030380507497904,9.25464906726704,31.45345634749374,24.32114550633552,18.213064139519545,6.571472999638699,1.9977357854757027,2.010043624587864
2,0,3.051628521586609,9.774863201362447,30.179115149646922,23.512191345343567,19.57631378952615,6.666750126810642,1.9457490905764214,2.0489043972999954
2,0,3.2004250915655192,8.792073945663569,29.88073931717948,23.058437667796593,20.64563927835745,6.780895212773374,1.9913577138024021,2.1522076690950986
2,0,3.055861400338854,8.320400710075251,29.68581716277463,24.511457785601888,18.393195077037745,7.367497860282892,1.9695967537785315,1.9693018701209708
2,0,2.9333876017528073,7.913144963731814,29.522834397414755,24.190210117134665,18.4897233966967,7.224139292162579,2.102876748899299,1.903122237179494
2,0,3.116063505410151,8.272067977698347,30.76957599502872,23.2035627822834,19.76791267580835,6.7880619123513055,2.0180848042493005,1.9994513364708655
2,0,3.1414467215761994,8.133041720116658,33.35710146190416,23.434949792465563,18.153905780891694,5.926314090074193,1.9822596022292227,1.9841281002372313
2,0,3.2798190506018656,8.21300474022778,30.511587569076323,23.46513794988682,19.283707801045434,5.883848222845361,2.09196067307867,2.0083119558039457
2,0,3.2527641447678213,8.297738212797249,33.67292383679549,22.93763464020076,18.4019754806499,5.863171509121675,2.140985290536932,2.0844215733051144
2,0,3.171505089724427,8.801195585620997,36.50072901342073,24.838974834870076,19.881295392103194,6.305690646695491,2.07388846790356,1.9737306352978587
2,0,2.960122547359254,8.019422074921101,27.287928992553287,21.77628848570607,19.79997814137106,6.347450178294121,2.2301102436697113,1.978415271970775
2,0,3.3149727397561297,8.34477115345482,31.10515023031256,21.943897228946216,19.11319676960999,5.353375157585546,2.1782594261250643,2.219284690197148
2,0,3.1517317881258595,7.652425901681644,31.394165567648393,23.028611881263856,19.140354832507352,6.259994688261032,2.0676895958838046,1.9028407123249151
2,0,3.163986741814693,7.6391325788161675,32.853716615767595,22.506708400926048,15.318179315560036,6.461117180149737,2.1052193112039235,2.0300620825363085
2,0,3.1824372056911785,7.947242656759691,32.44856324093025,21.9555575507354,15.477726373344774,6.2123512099959,2.2898945884652977,2.1811565746508075
2,0,3.3297574074537506,8.069573889624627,30.86590255191527,20.966979667759077,15.74722713626928,6.2511848699513735,2.1369720562651757,2.3097867514886516
2,0,3.353197954794792,7.423754954095863,28.27942297152645,21.301858534462983,14.528583314138073,6.2105860187710435,2.248067881368107,2.328791074239556
2,0,3.5596666659829794,7.375516854021559,28.47352986000725,21.64459942560093,14.286863237532742,6.6014725916502615,2.2160230357936395,2.5633979322299254
2,0,3.29111037137155,7.850197863562417,28.007153217581365,21.750117939260942,14.897603745386101,6.7115211321744574,2.1626883766634077,2.4076211075544736
2,0,3.375678462494753,7.637903803076834,29.577467179633857,22.493480395800493,15.992590762428291,7.053162886202441,2.430562123700077,2.2070752122863215
2,0,3.4455323178198127,8.03765828516077,28.50096802998582,21.545615368163187,15.712627688295653,7.183375265444517,2.7416676355507046,2.2433588703358063
2,0,3.116719766818047,8.419989870457451,30.780905327755963,22.833489392507555,16.73973434925388,7.321043352139997,2.5071927254779878,2.034433254663415
2,0,3.201201081405808,8.818241056510736,27.475835661428416,21.198026319217252,16.207289765750158,8.101218006261329,2.477530553027292,2.0710993518964904
2,0,3.2191975224396217,7.9724483503024475,28.408455592512272,22.48330109494858,17.058537916188264,7.642919295216178,2.250291492487332,2.167984549149454
2,0,3.0613572175157158,8.234528659517474,27.449611968012523,24.593514068434203,16.677866373827133,7.720806631640267,2.1188240545161388,1.9895542789621428
2,0,3.4300708890112017,8.06369458542117,25.680366521103828,21.233559115889108,17.49922839046124,7.722173769272769,2.1642359743591064,2.218542449907162
2,0,3.0832141566634577,7.6160640243657625,29.82618718951493,21.986132669075353,15.564758937840303,7.465006755076682,2.111423325957609,2.320795149870313
2,0,3.154606029705987,8.311201055132905,28.676239354583405,20.97218408575939,16.03719799993122,7.452512785524733,2.1651996622166485,2.2301255513567337
2,0,3.225507933228737,9.145610982553652,27.897770831403896,21.048804952381047,16.341512856859847,7.938229993129198,2.357442625595728,2.3901457474286225
2,0,3.388771028366479,8.576187293516014,26.574792196703545,20.1855842611794,16.300578574474084,8.72813721365708,2.4317866735141873,2.547244335530587
2,0,3.064389341515386,8.224834143505866,28.765291061240294,22.565349211988018,17.03114102587801,8.593274317846957,2.0542875964896283,2.173785927250067
2,0,3.110895774413276,7.667530065316372,26.3119530005516,22.10631979973474,17.51476085495789,7.901903673845653,1.8791046829295126,2.2359696907912863
2,0,2.8651087592012683,7.933144443506312,25.95189299041372,21.91537030177966,17.959705075495386,7.442575304205861,1.8251281471538368,2.078462768519789
2,0,3.1650552444375886,8.066285667867989,28.026237952049698,21.91614069572441,19.098767464645327,7.3018506228539675,1.7981017548320155,2.208546073499072
2,0,3.1491501090797187,7.9215808935718535,27.357541636716807,22.57429360764621,16.18304160669939,7.464579397234613,1.8099422605594613,2.271174383406019
2,0,3.4555216567919174,8.39428396477503,28.875603619112415,23.75138122513269,16.64358551109827,7.44680166352072,1.869219993634805,2.2416291108064548
2,0,3.1506208440359416,8.081165786526023,28.66489704931023,24.366194346966072,16.393779535779235,6.8359094055639895,1.7719774573407896,2.111396920038571
2,0,3.0749355479218274,8.110312248543822,29.967102424779664,23.353703498537755,17.210062283039306,7.403542178938681,1.7931642551829687,1.9442368308162923
2,0,2.8199558829351736,7.724673689205474,34.36805193089222,24.52580402739888,14.64164943230189,8.081485294258755,1.6663311946087607,1.871994862220107
2,0,2.89226052435381,7.979120582775543,28.473421075155752,22.774766094463754,14.946553384659309,7.610022635122394,1.7634592217086686,1.9148985038003048
2,0,2.9114511225083795,8.054470046597425,29.75770057369034,20.906019776655853,14.127607492130535,7.468798845643913,1.5718776819856413,1.7986703055896633
2,0,3.0916174090538306,8.212658840969015,29.570628257462165,20.84349550879256,15.632704750399109,8.081559429212954,1.629305047482818,1.85150547331922
2,0,3.2237625665730696,8.473379331758428,30.482571741134407,21.703968951259824,15.586367050167324,7.600364533168292,1.6696962888412852,1.832377237343913
2,0,2.6730085915128132,8.299725492763065,28.89003942001204,20.64120514487275,14.392934394837852,7.3548410198550505,1.6973951835163055,1.6720510787369085
2,0,2.777732754885245,9.20719393367548,28.534437056642364,21.97595956643011,14.173239810421846,7.863427594877255,1.7739416545650948,1.7292930097028278
2,0,2.8184421354580476,9.02941106996281,28.329442387392763,22.97042883946978,14.266106036821851,8.028811200543899,1.9094866263715717,1.823226507890975
2,0,2.8399412466792158,8.80154928610226,29.859873459092835,20.81586943670338,15.51640714313535,8.147939465917055,1.777078961742239,1.7506463105393604
2,0,2.8897284304835953,8.623118284695362,28.74104960362178,19.482318819447734,14.582665853924864,7.271769628883884,1.7604963718272577,1.7099571698557894
2,0,2.8568753443724635,8.66337199257588,28.741669627247205,19.3096714226413,14.680688093307415,7.498217809130119,1.851371595852438,1.8378431711465189
2,0,2.9561540069035037,8.678764445040988,29.20210406954142,18.371098156865052,13.540327516282439,6.931456183383088,1.9203180655971215,2.1249390581487795
2,0,3.0810001341606625,8.603089629908496,27.130699311258315,17.734891104502537,14.000899189215811,6.988826930864403,2.1444188183657307,2.1949312089590416
2,0,2.7917016624510063,9.241598153751307,29.512913167825,18.698954148146463,14.23222948411735,6.771221201928879,1.946392659706514,1.841488312424967
2,0,2.6912893217398346,9.31952978903042,29.863200109286282,18.31853099688332,13.862225446794227,6.791707880299637,2.102164431623268,1.7061453362117376
2,0,2.6688889461397074,7.829349362920519,26.830861148794128,17.90923474530114,13.598578454295415,7.262704948349584,2.1659867262797294,1.6267793795734602
2,0,2.7497074944508193,7.971832799499177,27.82823354164277,19.505818589842995,14.521313532226722,7.634812522724521,2.4246452113688686,1.7834958046186973
2,0,2.780867686772299,8.330259321812074,26.23541768654788,19.367324468422787,14.083053340594583,7.018704919737343,2.2912935151165597,1.6502741350498376
2,0,2.8381830315398435,9.080067753660753,26.407170769788593,21.180141847097072,15.311577325423642,7.716133697592944,2.3577621939232887,1.6857962000696765
2,0,3.0405408900231854,8.734346511637591,25.52177667417875,20.597715373757293,15.001449426297397,6.86330277870595,2.3887636062195594,1.6821114333792455
2,0,2.705616108714168,8.813235210499235,27.38073091106303,20.807233720109682,13.714710988368495,7.226932646168119,2.105080127784841,1.4912929889715654
2,0,2.9380644263802647,8.141400702666154,27.393168444575746,18.84670224532857,13.384593558834545,6.974221134675247,2.2477513803021805,1.6406423855220658
2,0,3.136512079440372,8.247028273830493,27.537213415742542,19.675080671977284,13.354544052668665,6.841275857961558,2.2030418580043594,1.8238577821175863
2,0,3.102744909782258,8.15341139389386,26.714846195581117,21.406364703408315,14.05266389343492,7.279732845493008,2.336063459631697,1.9074418775235866
2,0,3.175883470089153,8.835923883535266,27.919052777644655,22.40512245000363,14.581236724641615,8.090902995088838,2.4064564494912553,2.0294093229855608
2,0,3.33613843503209,9.044812421739033,31.248420732503394,23.035460897174314,13.59303093072073,6.936987816298763,2.3178629772246127,2.062222426171277
2,0,3.2616923724740805,8.813370369655567,30.704382443815025,22.849784750010823,13.423467483947972,7.069472001110818,2.3728030922198315,1.948188336312315
2,0,3.103901144936426,7.237605173520379,25.70609626844998,18.89529768565576,14.338907750896539,7.699273576930071,2.463179243584337,2.1453520980668306
2,0,2.5887444498940932,7.297099544759827,28.56941836782502,18.987840544159653,12.690709021487871,7.474826693157634,2.0866415595484615,1.823233042971964
2,0,2.7950751953523842,7.950864088313708,26.83915529014986,18.004161552521495,12.489649544669012,7.648732388779997,2.01252083071709,1.7916951923886806
2,0,2.7327000498489746,7.648883944808048,26.275529669076718,18.75520605982994,12.549338451478475,7.806115036351358,2.0070364007857346,1.8375388673330864
2,0,2.872159692810809,8.240543154259521,28.265944367683176,20.346820923604042,12.939783191765956,8.151870233508781,2.111749852899452,1.9099573011243762
2,0,2.867201652250046,8.663354765616116,30.5365600582895,20.417693007840946,14.09977407534832,7.868229462100566,2.1591738002779004,2.031808190319998
2,0,2.992029639803574,7.329079235725668,29.621062232182837,19.8500426570565,15.115217980033208,7.451114822913054,2.323583772370427,2.0327536010054423
2,0,2.677697216664191,7.609252550896346,29.45342194635289,21.803812548601318,16.1392966249105,7.2957892637022805,2.3685187264292087,1.9753999680284902
2,0,2.721796189569574,7.893930960481907,29.987762628199064,22.8633574209566,17.691294834425545,6.8301950809849705,2.127882304688969,2.096820523532162
2,0,2.547545024046315,7.917303160913742,29.309533125348743,20.444968303443,18.378450405816608,6.505864425970728,2.106863885343213,1.897901716812336
2,0,2.1778893002352957,7.930618140251432,29.8170072828873,22.396635985874266,18.80986514966591,6.769244673694623,2.1131725122236147,1.7082555343522408
2,1,3.2458105443534584,5.177460680006782,22.60670061092746,18.260086973802732,23.694103726684173,6.187106226392261,2.1911855628931827,1.9353661484308209
2,1,2.923875723454284,5.558880436870139,24.271043087858946,17.297372897237615,25.120115653076603,6.8139265155118665,2.3198876138405358,1.9123540196354827
2,1,2.8836218529609106,5.842098232708101,24.89148148298984,17.321657994817073,23.903428882301885,6.762479018061187,2.5309836731006325,1.8729174020280557
2,1,3.1167376652660828,5.9273295383911355,25.648215088303715,18.41058692064409,23.14813929752984,7.461050224171304,2.5235997127179806,1.9593422459096717
2,1,3.4595861283783367,7.123114554675263,24.949281270452627,18.187097570420097,19.283825080682348,6.978174082333466,2.8309613967793497,2.379825324034053
2,1,3.225642997980556,7.335771784763781,27.040972629689367,17.409739328056105,20.961924443408847,6.6229207888488375,2.61600229268887,2.2013004389271003
2,1,2.7485529469190126,7.570965628280911,29.229162412932002,17.717726507725033,20.90372397961086,6.8639767774516285,2.575311090880742,2.0915830447520123
2,1,2.944464968398521,7.523380059008839,22.0289197499595,18.84482660043051,19.741231913456698,6.215755955089085,2.5245974324365648,2.2264668922056954
2,1,2.9880159228037146,6.862120453466814,21.33476022860384,15.794144589652856,15.10118975044562,6.166960804731869,2.3297022398905733,2.0893573727554084
2,1,3.207395076363292,7.66441438291366,23.78883877030434,16.83179442074477,16.448826416796766,6.000121717066444,2.3855650815645726,2.3041300635742226
2,1,3.0535436154073032,6.642107266384814,22.048972237365767,15.968257519217472,16.064071785613685,6.474984517032858,2.341269627585785,2.2596919647135567
2,1,3.102591559669897,6.63273473403023,23.337249834219516,17.497409521113706,15.76039446568284,6.297440577602781,2.2421856243030653,2.0733814235201224
2,1,3.040214686709024,6.433046217114356,21.92979948858236,18.028265732762545,17.069466221878407,6.348030111089265,2.2325853509378666,2.133492196411387
2,1,2.673836997700505,6.113025205949943,23.575149516895625,20.17810588243516,17.04370450117076,5.952647451166223,2.0221144797926294,1.8747002817489073
2,1,2.7034700994740177,5.948397336018259,24.31249452162704,18.789020168524655,19.081611874864343,5.432455508541626,1.7795281653516444,1.8393006197504396
2,1,3.0029286430934428,6.683259298261919,26.787476982033954,19.739739821388067,18.713284774293086,5.3067412701288506,1.6887647241875192,1.9943590766607253
2,1,3.187275699190851,7.21486957937591,26.796041528261235,18.42984306720485,18.87697611817194,5.438630963103177,1.8505066663207723,1.9968708131308124
2,1,2.984262531659259,5.699816934235526,26.63973230272619,15.207990778350252,17.453490770280556,5.847290991905832,1.819279746749714,1.822959873873435
2,1,3.0683021278706613,6.058573117476248,25.905986818964866,16.488215241939542,17.6147483903791,6.060091799392327,1.7886288869750024,1.8258575839409972
2,1,3.2371593481786465,5.642674522023921,28.495265144621943,16.09837840051077,18.834031080098224,5.812633784735234,2.027476830227074,1.9290956056070652
2,1,3.4934714708826755,6.025068577705383,21.83066238533498,14.914197148390814,18.914237012588863,5.796471782759056,2.039576561462921,2.101556930321019
2,1,3.14319218115498,6.000277754060447,20.956164845001346,15.241054778621143,20.368168749919512,5.785351537108959,2.046825198174813,2.110759636835564
2,1,3.230890972756285,5.9610454881234975,23.678484448861646,16.86831376111366,14.760835251135092,4.642111946514755,2.12194269405354,2.067627540334014
2,1,3.2914127420448644,6.203414468417312,26.17527957761534,19.046059847586303,15.956900147228291,4.969402087805412,2.288691401337141,2.3032694981995427
2,1,3.3509074953958824,6.061626829570364,24.20364742618985,17.83320205313851,15.601578992854671,4.8309325498113775,2.342197338208972,2.2890562344428393
2,1,3.0742540646064302,6.027601614221845,24.83395693428009,16.74980249988488,17.03388094159242,4.581644269206705,1.8523702636023103,2.142661779260431
2,1,3.4386946826247833,6.649682518317423,26.269912497281428,20.669158354119205,13.242212546576496,4.832576725614108,1.922002062146145,2.1651352235270553
2,1,3.381326375755471,6.351341931833118,19.804762430450786,16.37966472527383,14.093522034625607,5.594626913667994,2.0895217658802676,2.1758821148165284
2,1,3.116402594511386,7.494290135588339,23.24725571578861,18.559912189134906,10.932126338736044,5.12885842543881,2.1727256385331337,2.2431488383419187
2,1,2.9367771476082383,7.485832791580749,24.691672608371917,20.807349205445945,11.609614221912906,5.569569813202656,1.8249276260205303,1.9141907083412304
2,1,3.058205973597757,8.33912838696086,25.5758620480458,21.479109577229377,12.239492381834287,5.00711883221401,1.8542155570362626,2.1112557181528357
2,1,3.22083027023034,7.759074385106997,24.723285034097113,19.76563431241459,12.414252622454095,5.3426565795391285,1.8703782124408854,2.2476389447533816
2,1,2.9368577407279135,7.78905087673929,25.58411762167376,19.45561419107146,13.224350131615035,5.261250378209946,1.910044722772428,2.0113065661960596
2,1,3.0849625263867044,7.115311873145117,25.05366347452874,18.70688679367962,13.454055778093432,5.5294548380087205,2.070921170639063,2.068811734770153
2,1,2.969927769332789,8.044205174412777,28.002470323549105,19.34940706166568,13.991086873272682,5.405286481290599,2.0376118446955185,2.077036053340548
2,1,3.2068606444930934,8.051860068814692,30.10824958702691,16.232044841374385,15.097636280495202,5.567642801951364,1.8627129433744394,2.10986629753802
2,1,3.462008134989538,7.821711277380786,32.46141987545301,20.147961243762317,14.496281322944608,6.629783940851035,2.0613838842739223,2.4822601089437306
2,1,3.631549886701724,6.8690958519911565,28.568891279529417,21.85845818467266,15.17517893854441,7.38583988525837,2.0112490656291335,2.4729214155721966
2,1,3.25663465383775,6.899975975679954,30.672253633886708,21.322226243884774,15.962690296807201,7.004714470416103,2.1892160332660704,2.2740281133886504
2,1,3.22716310251928,7.013882627891163,32.35985774292887,21.147578023145506,16.674686883129898,6.1085517049056435,2.4137735600321686,2.209048590053614
2,1,3.4081834698891567,6.517940999722652,35.21537730380575,21.709821904430513,17.317889406428343,6.361039550424096,2.521035847818027,2.410627138743094
2,1,3.178880771306175,6.952210921046803,33.08372216512009,22.821720314704706,19.186929300251492,6.775772950475436,2.455484626095137,2.240348644892597
2,1,3.2918321784395284,7.28018387536625,35.29639312554083,22.955088098336017,17.693279017481505,7.224454036955625,2.549942990045624,2.36006119051423
2,1,3.3810467001752627,6.17099920537605,30.673993045001822,22.59543993933164,17.249808751205855,6.598652345593232,2.307650105549764,2.147531373542259
2,1,3.287108488423725,5.697325146093632,30.817658000678694,23.02895360797528,14.823033614410802,6.950381091360446,2.214032401241056,2.0732039254523156
2,1,3.1554407589831928,5.850805862706353,31.81387266366174,19.893247234496066,16.425249931659437,6.756192804730976,2.0771689167519614,2.0000863667561677
2,1,3.280619775940673,5.828294256506739,35.046977376731604,20.964984387081344,17.85104195600219,6.915988592011302,2.2323299247033157,2.1108694355510575
2,1,3.418369677431699,6.209363568663479,34.71017464219033,21.258794858977634,15.495419132391051,7.313597863352118,2.3625546497935646,2.115745463772509
2,1,3.1850387555735518,5.799026375723323,37.761123370521986,22.621906248083608,16.630521455716167,7.430068545959279,2.2194166187227666,2.117557377408356
2,1,3.365603867561924,5.649021991518687,34.63138701594953,22.002869164398916,15.881688250835698,7.2710345802202205,2.3003443546793565,2.262377340149026
2,1,3.622000356061225,5.844627696814103,33.34381461136603,21.028171711844212,17.11026691726258,6.6487855354825545,2.2379103890401066,2.3366131318041963
2,1,2.9058043120146104,5.772268714179085,31.47809034076128,19.694080875685426,16.90036288991467,6.520339776593254,2.289750314437502,2.040087483946324
2,1,2.4707532648681956,6.1278774341454705,32.54464654053406,21.53839066404185,17.9667579874811,7.131868422233796,2.391391366132496,1.7783992171444047
2,1,2.7211741705076085,6.591511071320335,27.759398555665076,19.533178077948612,17.03719622690472,6.106212771074813,2.0141877220116307,1.7482046688660369
2,1,2.844886333932795,6.482249955102452,29.937964558449863,18.79579281645759,19.01750063721866,5.471732748149409,2.0273477312154298,1.7625405862779029
2,1,2.21037563467843,6.640620326501278,29.706055239993063,18.410191039393993,20.882509324323102,5.735525461571516,2.0212768687867495,1.6533072816572905
2,1,2.271195909595296,6.981086015045124,30.72596229697987,18.76170615049386,17.72070409941991,6.327344899818589,2.121817837635276,1.6992675060979097
2,1,2.5356526632167715,7.144726398276221,28.23146381000868,18.438540750530983,17.26646819310846,6.109591225749449,2.0421376834597083,1.77600489719425
2,1,2.766554659217247,7.377726325363932,28.69137842300959,18.145168658098683,17.059016633117217,6.4152406882136574,2.051595928265114,1.9046610811367912
2,1,2.682725246015475,7.472601139122057,30.532707193534634,17.1825056961447,17.144209303581498,6.867038414865254,2.159426187244978,1.960893431547993
2,1,2.414280603376184,7.68938918197361,29.74078060543052,18.43082042401652,18.81498844121695,6.3849978834118,1.774043937917026,1.8330430760932719
2,1,2.5239278043667728,7.694572906691345,27.872900176707546,18.5806232808695,20.47938251304452,6.782151923351989,1.922814335081521,1.8311567118870586
2,1,2.6228671179059266,8.411448038495148,29.027488495254264,19.411405135296143,18.243896489220695,7.011678359476881,1.5906948650390047,1.7559096619267418
2,1,2.679358397023103,7.7053029413725715,29.60588806360325,19.691658908736635,17.12095198015153,6.561988097274387,1.7484824663190288,1.8054434302894016
2,1,2.5449561855637057,7.490865145423344,31.518723609297776,19.838393751042318,17.245048334994248,6.366765961214737,1.9119020716760022,1.7729938768261175
2,1,2.0701175444350923,7.914423090542488,36.1168547775113,22.572271897228397,17.698454218372106,6.0978845052487,1.9247753377482015,1.5646571419578776
2,1,2.2453669322952243,8.149446372331225,32.40383972363236,22.943159883096182,17.685382070859998,6.219218921875449,2.0497072026660046,1.7602691241398407
2,1,2.1973394321471145,7.70416689114937,31.52344809632506,20.12181387940446,17.221793091972447,6.389823420247204,1.9747911955399369,1.5828753927868238
2,1,2.224267766122996,7.951207321211986,33.44612030134754,20.573683947001644,16.873057449648773,6.812454195384061,2.0610350430974624,1.5191367421953572
2,1,2.2919581448636284,8.159963314413025,32.142025618571296,21.636147225290888,15.536490220271894,7.288336558895202,2.0264576458418886,1.3811041306401748
2,1,2.389924199280994,8.72375227008178,34.705468762680574,22.09338718449389,15.534711328057796,6.81535117804323,1.9068887494097169,1.3427925315569762
2,1,2.4872028418589234,8.18401037198548,34.36026367346137,22.570439233668335,14.669774990957515,7.232471643162486,1.9279132820857363,1.4381026711838831
2,1,2.4949949165570913,8.417013854390559,35.06914709351923,23.70459777120476,14.790669177000218,7.033226578340617,2.0347277289622654,1.494488770538161
2,1,2.655254408288636,8.718475139321319,34.76098242225293,23.8589819348634,14.489798812179071,7.1792916833753635,1.9542506397803863,1.5612918950462782
2,1,2.728888161973187,7.540194737951266,32.50191419259715,23.688139315699715,14.892256839478518,7.009457482334329,2.122531370646825,1.716992370729597
2,1,2.3217277667070246,8.00079460315914,30.57167360917929,24.9411704064102,15.408380322305359,7.351312256485472,2.1403664030359257,1.5336951559077356
2,1,2.1414816081719166,7.214749684490918,30.075434723847142,23.586506180819363,15.805717647226334,7.648888299246904,2.0639214093300726,1.5238664730829974
2,1,2.1611783298889313,7.695092618240165,34.12128310788484,23.97877492865727,16.485495511729823,7.299150406358247,2.010976287117773,1.5717047110270317
2,1,2.355186077769458,7.698239133133516,34.90687118243881,22.179360560745376,15.394974124546067,7.4923712599893575,2.1091856614857902,1.5631283682459818
2,1,2.4077612525463676,7.037948109884407,35.8622328901024,23.131723072836433,15.597028495749333,6.899861270969024,2.1179222211297253,1.6181473950573764
2,1,2.398580060033344,7.52544647229762,31.936379796939093,20.84332938206114,15.249129028824157,7.5119823447747,2.2013132215893036,1.6656427464362256
2,1,2.7101319672736333,7.745432007432815,29.02896290689364,21.288602746200343,16.18358470275526,7.908926058086911,2.2303532929421057,1.7919196888747424
2,1,2.6397755730049752,7.9258174236762695,29.274464704299767,21.69485368589872,14.503904850325688,7.912654300066396,2.055937369340689,1.758607287434888
2,1,2.7040562848742193,6.657096376805144,27.19777199553749,21.386979292520437,16.22575502589116,7.669450602654484,2.088425734784897,1.8349130773039244
2,1,2.4320097320251395,6.940238279771978,29.57660997028975,17.856306736337327,16.892187493905052,8.182369385118914,2.2529383920611723,1.8262228311844004
2,1,2.536102125623501,6.42223710870081,29.512650587864247,19.77186274011458,17.757200918487335,7.822870243650767,2.2723974338593513,1.9453893793348649
2,1,2.474604354413212,6.646285199781914,28.842586081887244,20.600605438985006,17.68434566928665,8.238214473585236,2.25232362494158,1.9223062557771147
2,1,2.5611094736101183,6.747159904404288,27.02433332761604,18.91834117125672,18.280666430500673,8.485396513969459,2.2255255295792127,1.9508449550435942
2,1,2.6426908428828937,6.499753661296718,27.64370538240825,19.836297487025696,17.992350029400047,7.996194859111212,2.024213830578044,1.8576105285557396
2,1,2.602036937161784,6.193862414148795,28.503423762850677,20.14792779641932,17.899593933358172,7.971195201289056,2.079945488677143,1.7345131273838135
2,1,2.5424888488940205,6.594021642530894,31.29414283870523,21.599201890575298,19.29376070632642,8.45800349118644,2.290540838919023,1.7553068346688503
2,1,2.5324569362557754,7.105727195793842,29.640310777831584,18.24310930025403,20.28831842138338,8.066250978350059,2.4822639216156346,1.8075063125901614
2,1,2.333229903741551,6.700697776076448,28.4370416474993,18.590329669953803,19.542960780028913,8.64862840813349,2.4877668236248422,1.6740322644463552
2,1,2.417373003302473,6.632142043009274,28.130975290624566,19.628975586909583,17.280192783520558,7.9288486153280155,2.332479604362828,1.6534530581152997
2,1,2.5190690521522683,6.983707348585827,26.950735823229895,19.59073357923257,18.484123633765574,8.005885463310474,2.20033896733948,1.5286863491572087
2,1,2.8444958839926495,7.396893740355885,27.3402530718569,17.52373462800248,16.470544064825074,8.31206349129579,2.133855071908342,1.6404689349858517
2,1,2.8435628285066175,7.116760341472327,24.951228106747134,16.1675491635919,17.41688549758982,7.472220357056469,1.9987324399580935,1.6147275475141616
2,1,2.823459881984053,7.036254757226926,26.58492732236773,16.661799497725365,17.776213201999905,7.203014642974675,2.1014772258462924,1.499024874815906
2,1,2.840616765866468,7.2112825971187124,25.27828996002782,16.94192533981205,18.281488192695104,7.521247768019959,2.057223294538847,1.4990431064576895
2,1,2.8909842763519564,7.148262295061424,24.58783720251822,17.464871739870404,18.74194605965373,7.633255201019422,1.93179767952428,1.6144155731851695
2,1,2.9464520768841065,6.40483815652105,25.09778842222368,16.528085944792362,17.948777682929943,8.128129017429785,1.9711573066332526,1.5916647179242238
2,1,3.089677322363095,5.9205107847974805,25.054650825708663,16.0262589772177,17.788071643397362,7.949103815405796,1.9419011141004185,1.6633853325724954
2,1,3.411780549381533,5.672984721403133,26.46287832967364,16.896574733896326,17.076228215157037,7.476322637368719,1.9866126144204106,1.7463785396479659
2,1,3.28767139940138,6.060036370931648,25.82624242775018,17.036800868949378,18.24270353174485,6.392361223373871,2.071846825327948,1.6527838976391922
2,1,3.3617396218397495,6.641987317651026,25.888374968750465,17.678181623402605,17.216643516264465,6.641796953146711,2.2433917552140676,1.8609316208460853
2,1,3.095817329122813,6.226181719319047,26.41909747476913,18.12860314374137,17.225103346013267,6.0798192776599205,2.0557166442859858,1.7297875881698874
2,1,3.2202678077624536,6.514760583935703,27.582079269032064,18.089208870199677,16.580167188806726,5.6162418815241075,2.179104488992728,1.7928862903042775
2,1,3.342761288142036,6.44195755892344,26.138914533596594,17.0818552060405,16.050255889597842,6.040936247695445,2.2738698273248166,2.035446986427695
2,1,3.5775038262746675,5.677351707280404,26.005794597023495,17.661041375419405,16.828729699259416,6.0394555885186,2.015649128346465,2.173202990269525
2,1,3.296253452220284,6.218389633536785,26.129906133085555,18.226507617054992,15.643137746410485,6.48974340607541,1.9566614862948781,2.1680277790997566
2,1,3.2201201938171455,6.022867087454406,27.487952640863607,19.764802851501205,16.692866719042883,6.097952605110561,2.0437642901355204,2.0983774793544616
2,1,2.8741976625470462,6.024877218112594,27.036416015110863,19.933971227666433,16.508946527860026,6.382207958794418,2.0221821043231296,1.9947785494283585
2,1,2.8240337855752515,6.296398384682475,28.625200300302634,19.49364236870958,17.633630005278775,6.886752074188279,2.047160707328721,1.8019167553005437
2,1,2.8600333352534797,5.949934922422488,25.76142263577932,20.825175873374732,16.219932684590848,5.7000201244165964,1.8992221847362816,1.9367513078582652
2,1,2.8988811840498316,6.214933328829232,26.157439129550024,20.34802620870961,17.96171076556792,6.359704204617103,2.022456602289719,1.8908414750179565
2,1,2.8092060713479325,5.4805160597900855,24.961014012659856,20.85131274296412,16.9762560601649,6.415910475280359,1.9314312684082446,1.875215724849564
2,1,2.261808157738865,5.730180356829689,25.616124813770142,21.425618056290542,16.627592712358684,6.156952574509018,1.9185780462179143,1.5957559384727886
2,1,2.1791706338570407,5.645689775774094,26.2790169868062,19.673028469199593,15.243254890079594,5.573520220941106,1.8431720964753424,1.5784422107017237
2,1,2.318937193932378,6.529265803485431,24.47853578583038,18.285104549514802,14.15203595856297,6.228393286990328,1.7677547742053428,1.780448117826424
2,1,2.246399527900576,6.391403197736061,25.562506258960827,19.420769845456626,13.914788765191973,5.852003209318532,1.8901741073251799,1.5290891945438174
2,1,2.1942328655576997,6.564344577545327,27.136433300738158,21.131515074341568,15.151451699479805,6.196809326017625,1.902461491638099,1.4502295139393633
2,1,2.293455831618195,6.455654171106567,25.10740112819489,20.089598008012043,14.383179901894705,6.526219461244048,1.832686118997139,1.553340041420056
2,1,2.4968056755041257,6.194615431982252,25.507598317131293,19.942738062464215,14.084924435515878,6.599691615015044,1.7755726517769574,1.5928361743157244
2,1,2.384453115539686,6.852213493200652,26.122221916841116,19.322751699591663,15.612622227663403,6.191980140391271,1.7466156260791394,1.5716409137762206
2,1,2.4806613077511988,6.668102294229847,21.960422981317034,18.322033276180978,15.887972661686726,5.800743035981422,1.6564969941426106,1.6333221042377675
2,1,2.423054236226181,6.230107938174653,21.720410608013385,15.128661920150181,15.401373160900834,6.2447634774367735,1.7604853509615936,1.699938071323415
2,1,2.4761933296234506,6.426545807476479,23.332894291270538,16.32096386484482,15.407858851735307,6.33859408996735,1.7580673022794593,1.7431537300373172
2,1,2.7388367761419725,6.3807440419114245,25.782257616399153,17.512881379215354,15.776305509073742,6.366648061437181,1.7599491257433362,1.8239241819302712
2,1,2.1981915510245407,6.5912130547353,24.024925526635705,17.62795106407449,17.433500027742227,6.1952447151781005,1.6999851939506312,1.4295431794343876
2,1,2.1134813125470377,6.710994796158945,26.47672193450371,18.334742360266244,16.45440549551706,6.182238725981734,1.7241606979237467,1.556631298665887
2,1,2.3337272578212565,6.905035614733962,27.94818938829439,18.253265485449752,18.087050815326826,5.945578868011013,1.747234458256241,1.3994363746639902
2,1,2.6022062302706392,7.652804624293388,29.13538329194137,18.58679732831652,19.061729992884683,6.198930921291101,1.771358537605737,1.500241092704917
2,1,2.3342409026062576,6.889014236242174,27.11125659011235,19.453712314591602,19.66451025659153,5.994031377826351,1.8598233851231212,1.4199015107761734
2,1,2.4734266351795955,7.3527820696480815,29.45682259840752,21.494385021419642,20.24187398851954,6.014685796986271,1.949433428151329,1.5415669679061836
2,1,2.4460710202023788,7.652877121248304,29.499935246399684,21.311158716130613,22.63684584232264,6.391778650047833,2.0102655929318045,1.7276558138307319
2,1,2.615937650145776,7.661059111552663,26.779208889750095,17.944341724430455,19.40321879522901,6.007951210006028,1.8819215081961818,1.6757140902182064
2,1,2.4933904662853275,7.126155342736547,27.916710152455366,18.402188316749434,18.506126144316802,6.330322134738528,1.7623254045684427,1.3846117741750437
2,1,2.649865844366304,7.267568156660214,27.205354905585107,19.486495907660714,17.100758450249426,6.404578904782085,1.8943032569050242,1.4238996804603752
2,1,2.6668312745517153,6.771678586270174,29.560816647755008,19.27598938533711,15.413876976341895,6.818359088820377,1.9792593704479662,1.554705428145058
2,1,2.5857543471938476,7.2401618538671455,30.169098090638627,19.938957198167913,15.543200544010213,7.19421027196517,1.9960620627755463,1.4591746528204361
2,1,2.830863247557165,6.833126996543354,28.59849063640071,18.93259570348754,17.100825215756505,6.902706272792799,2.084167909937544,1.4895773685059204
2,1,2.5426511590846137,6.555576287679444,27.406136506453027,17.84239307545482,16.611206181850083,7.7896028999735725,2.284767467510596,1.721598080059585
2,1,2.4518924581577832,6.242711543231647,25.35114317402962,18.92984859938323,16.74014067328713,7.625372234265762,2.2860347603960682,1.6410379029308464
2,1,2.5535709939777402,6.554738960455485,26.239111141040645,18.472412377205455,16.17307541298038,7.266286195567232,2.341989059337248,1.7371371912335765
2,1,2.6764291446720962,6.122742457730374,26.444902199723085,16.97839213818246,15.317253072252022,6.634560501265822,2.2461088736543897,1.704513645269582
2,1,2.642522190948105,5.756356039109332,25.637172915313272,17.912981576796664,15.488561719945267,6.469076819940296,2.2424898205181854,1.54134399592388
2,1,2.9715660969184485,5.996697119626377,25.457763266453547,20.616325040827068,15.15843545805152,7.405189672233059,2.286175483961584,1.725550064564874
2,1,2.836322121245567,5.631741618644953,27.327533789993907,21.98481510566012,15.304472982360268,6.832844272271861,2.0529036555409497,1.7865928174408368
2,1,2.2715632554092524,6.04933326985634,27.71863865711652,19.570711245278726,16.370470064410217,6.6660947972779585,2.1634655007277694,1.5512167826001964
2,1,2.3717539250493243,6.7205697158406075,29.99917553039215,20.60365259242549,16.155102446018653,6.963791962039133,2.369792459578466,1.6163021051036077
2,1,2.416875128675948,6.374567676600264,28.67357674646861,20.561698532000346,16.20227355723815,7.11176312104049,2.42023694366388,1.6560254428704733
2,1,2.129181101479811,6.249744188410286,26.058534945527363,20.071188126939298,16.417999766933036,6.428693817852065,2.325158993729014,1.630175679825412
2,1,2.3085143395470156,6.609835679266418,23.991346822316558,19.504961342047842,16.669730218413257,6.269856079130198,2.5504139172773885,1.7231685432866037
2,1,2.5072583064338687,6.484149736368265,25.12308822742889,18.90614687969977,17.06461049143403,6.322399935124686,2.516604375971613,1.7464421390963962
2,1,2.325419030238139,6.835368424941931,26.981988345557678,19.850020123348173,18.158499942454863,6.439362687879096,2.302433186126185,1.4591701795246623
2,1,2.344064189967113,6.956627194377519,25.055091865216024,18.446150351595847,17.48792512840078,6.563062985215816,2.333623617506156,1.5069207195154315
2,1,2.2813452777567322,6.514340979682311,26.51438247817833,18.49533709118403,16.878921707573557,6.179747638700698,2.336499890238132,1.5225833540108014
2,2,3.0436899628373766,5.914661211733311,29.680978332450348,19.00289936985768,13.183584764654464,5.853403004611501,1.9473644822580147,1.7330607082414908
2,2,3.0367680600091838,6.456585990350497,29.356303021177077,19.314620961243946,13.220209468430493,6.5302681658639194,1.8908195990576588,1.715449493609359
2,2,3.3632065868136958,7.434895005849605,35.069631566518204,19.99579498984732,13.076295988723519,7.760518995678937,1.8584516149211934,1.9605696544685671
2,2,3.5564102650994833,7.263785953176611,32.2037644172285,20.09030665988275,12.443578201301268,7.97457549120209,1.8626339875212932,2.213758101981949
2,2,3.780997802778662,8.308412813465287,32.00848797540108,19.756469150678164,11.60961178751701,8.268528370556446,1.873805005733982,2.3353042642709205
2,2,3.4235657113849665,6.874780387385213,26.012314217492506,19.153118483313886,11.245695623182709,8.285687283034754,1.9945611197207254,2.0366585890409263
2,2,3.1567733819662323,6.791538923764998,28.91331164323356,21.46476509960084,12.165664287068136,7.440505390172535,1.800791432577837,1.9406770582226778
2,2,2.9722113139669033,7.227415611081863,30.300433605844308,19.87223657640495,11.357591624960353,7.9481552763242025,1.7535541225889095,1.889226938674601
2,2,3.1885783831537435,7.783757580627141,31.008482222154505,17.90797771317949,12.001849313998946,7.410526927089034,1.8753352573625541,2.0550596188973103
2,2,3.3859728628321077,7.863844756042547,31.675285801712455,18.43913027737821,12.557736267274375,7.767220003295902,1.9691023449548448,2.0426040337407247
2,2,3.3380738533108887,8.423557416087013,37.730674223206215,20.044510062795496,13.01112502727245,8.077699312322732,2.0792219165322248,1.9608444217319487
2,2,3.2636444216627645,7.366198416343291,27.455439150484686,16.421034988410398,9.659069358940956,7.264717792414011,1.9452860134417036,2.0471425621209893
2,2,3.5940682195278315,8.140150641961762,28.023863880132087,17.274274104513623,10.751342758964217,7.338127746503162,2.0269845997344467,2.264802923612581
2,2,3.8677115898386054,7.037716185114554,30.053234393533486,17.997616881829003,11.624324047084981,6.699598080897572,1.9887503172737904,2.3726443387020035
2,2,4.181071542656155,7.0679576774198765,31.59755737447857,19.006483753799934,11.096385696394247,6.618012099048578,1.999615429498265,2.6304564087783118
2,2,3.8401361383653407,6.044006046703719,32.84141941672661,19.368269315812952,13.03429926305158,7.348001477315893,1.9546416250550882,2.310373383406626
2,2,3.6245862291715194,6.87617615331921,35.39094658776753,19.699425671420805,13.958400961200855,6.747280287905466,1.784834899368828,1.9890098233744284
2,2,3.898914944796943,6.974674923791109,35.622968069558354,18.83795361495267,12.822362273938033,7.369949306111531,2.0511721886585725,2.23921498923586
2,2,3.8821333974253527,7.04161121114151,37.71760742651845,17.082302272340954,12.37616878773967,7.11990212170687,2.042486680531214,2.23448712796868
2,2,3.6073537436016854,7.543431520869602,30.218982795038716,16.891415866966852,13.429245152475895,7.248748598587811,2.283553410397087,2.088997700130792
2,2,3.612061330081424,7.646070483106714,29.556566804634038,17.532136808744472,13.113431409032776,6.996216555339376,2.1013752142527364,2.2169359372375066
2,2,3.595644229763739,7.210288294109734,30.348098419839197,16.732895124250174,12.945875085048185,7.750799784374486,2.2407518271554574,1.9588240214259869
2,2,3.3023243105133457,7.158141278784908,31.37470104321053,18.370223627452056,13.95755983825279,6.545752440012149,2.0210884930368467,1.8320074452269148
2,2,3.5724498418413377,6.421811808738342,31.015893996076528,16.314293305395132,11.941612557103547,6.204540396715588,2.1323427055446476,1.9522953844900741
2,2,3.5917120212038225,5.837380974204678,31.397526850322524,17.565141981605617,11.880957394579099,6.907181666102308,2.2723610827393417,2.099596331626601
2,2,3.647973374798239,6.171536048469213,32.903243801170284,19.22688722196564,12.610612201740066,7.941607733716049,2.179278829488227,1.9882208399405326
2,2,3.725879770434141,6.272410634817363,33.32429493564566,18.52572223515888,13.551983334919871,6.652964344413213,2.0261746904652274,2.0994738577178893
2,2,3.63355001999111,6.7026407627863875,32.68987886283455,19.92969034096712,12.47690564629453,6.808099173312997,2.2551684660334548,2.1791574156595828
2,2,3.9743296175505773,6.262083683362722,33.68013090388344,17.891565758146466,13.215582339151531,6.305446929843587,2.217175525720396,2.3736703132049715
2,2,3.6141139791318664,5.692616631682264,34.06159478027613,21.07019495618614,10.855683284181485,6.449834153736481,2.441770764371996,2.4777202413895343
2,2,3.283413058323514,6.096212945711745,32.60729443233205,18.339673264047423,11.488668331579676,6.432806669221449,1.8978899761931254,2.109312936056926
2,2,3.339592833825429,6.898695174139828,30.925026537472423,17.755662808540464,11.426906051201595,6.288355213600702,1.8561234927573504,2.1578910743159945
2,2,3.140646464757844,6.576328810039493,27.07889779484816,17.138727739930818,9.2738704994349,5.766653298971122,1.9779395619678541,1.8541963483061092
2,2,3.5379679494986163,6.229178976161936,29.5393801039958,18.70645649243365,10.01111991958922,5.97586044183062,2.166098031271774,2.032556130241669
2,2,2.9270802516018524,5.868946366034728,26.565226139828983,18.33564952150853,10.005923226662222,6.111674991605483,2.1980507746270668,2.0061074717050165
2,2,3.3284093298212833,6.084913451821442,29.26236019476239,18.881392160306035,10.749676842618346,6.1755032857230265,2.1886048850694375,2.2076485708750186
2,2,3.233548721538891,7.033344829455576,32.98120865591653,18.520882402797014,11.315408262797282,7.361117143829538,2.4413318244986706,2.220928026907245
2,2,2.9635786620856726,6.839455310941042,27.56691468445886,17.858116854121572,11.990744415398463,6.479296097476144,2.3624225304318993,2.0197573328960856
2,2,3.4703540987496178,7.984802863351636,25.369344175477423,17.90491291484609,12.809214760046455,5.944968615211713,2.4181736613849285,2.3381024782540716
2,2,3.252912287437805,6.590998021300492,25.30511597097898,17.19306305943388,10.214356304755523,6.6840057159486435,2.309909947058373,2.0777690617981017
2,2,2.8973505721491826,6.3486283198608,27.617369616354374,17.463472740407937,10.463988232827406,7.136908472892756,2.451210083019824,1.960156112002022
2,2,2.786816176573692,6.614988413573508,29.63894601977116,18.991740825515077,10.596343463545244,6.861870273249686,2.3109232673694464,1.8886957410380225
2,2,2.8858454118480203,6.02036374650438,30.004371592192257,20.85142930504273,9.514786620549183,6.471391504488402,2.3343579284860025,2.014011279445187
2,2,3.0672965322388497,6.138059540176501,29.043767465586672,20.93679389738061,10.005815304598517,6.25929207820678,2.4701810143781655,1.8482322397191278
2,2,3.1204509230071236,6.025557422646417,26.18701046884846,22.997732067059353,10.201901148110245,6.58959298845126,2.681429461004787,2.154990848216218
2,2,2.9323901152747225,6.210165897839278,29.35023549041921,24.557774687365466,10.41212251349186,7.03415670379675,2.5812135232746876,1.7935585801915528
2,2,3.194751274838877,6.125674379585096,26.193180367160398,20.081044368723074,10.972345998457085,6.042460199324449,2.6823605030694004,1.9116842604338822
2,2,3.68971453200948,6.783613509833052,24.21913218276325,20.1152640006104,10.567588985062327,5.71847943586765,2.5158253537717634,2.091156440046881
2,2,3.1638742943842963,6.532938938229966,23.17965922705839,21.477050827423675,11.170254175454154,6.144334014395861,2.4221288741195544,2.058687417876141
2,2,2.974624082992905,6.539029444166082,25.098314331561212,23.495482501660494,12.04650956969639,5.52182199520397,2.4542452353488984,2.046027355959913
2,2,2.660608440692616,6.749837055316636,25.820408534313657,23.456598092559997,11.713940305713205,5.599116519186801,2.1999022006522146,1.7965600509412192
2,2,2.9034139463136266,6.243443741875008,27.17400124219039,24.36735659476784,10.697901799103047,4.751854240869926,1.9627380831984473,1.7636487587813883
2,2,3.0764607876097596,5.975703809759098,30.085351538585673,21.533920526666062,10.643158967739302,5.083612168268539,2.1364108351398947,2.0118969766231465
2,2,3.3260763244595557,6.474594216269513,30.661452169011596,20.37146350611423,11.48020126947282,4.672030441022411,2.123795726904302,2.076315417957841
2,2,3.4306867589318344,6.348692882545431,32.77417846584889,23.61458177448949,12.287964302325747,5.265426740303392,2.282571133295241,2.3716897790953495
2,2,3.89589524992521,5.753499173334052,29.539235926183302,20.48947657049727,13.755211600268328,6.0462351401989824,2.185938935198725,2.4200215364584627
2,2,3.76486727993454,6.1389217148979505,31.138506571298294,20.92595566579734,14.079162456247552,6.24995256395418,2.2396260588714476,2.4228173842700675
2,2,3.6359900563624277,6.392511189668768,31.54542314292364,19.916878882046653,11.715051130096926,6.0722888284705006,2.1856765140456815,2.2983731016021762
2,2,4.161623437697271,6.016325333015528,29.361286138417356,20.233285398248636,9.939080606550942,5.6089138093688,2.305611586941279,2.6569855851302964
2,2,3.342576743659845,4.990782899465826,32.33120149335387,19.516756519814297,10.454953109273804,5.6572494714776465,2.2744476364068915,2.4243299048943903
2,2,3.505898531537746,5.58143550819347,31.153952442785688,21.226430695857985,11.947893357167066,5.655036981265466,2.2756006052509723,2.4215668514158035
2,2,3.937311251212609,5.719726736869644,29.659165901642712,20.73266523380528,12.982098006434354,5.883942096637421,2.3487448076075177,2.724671629725605
2,2,3.445581284574944,5.800768355002344,30.91860095479392,16.25364989459016,11.597793744743083,6.493733092133937,2.080229331618283,2.2901154077964785
2,2,3.771811194258528,6.168933283123776,32.604363132155285,17.549048842120136,12.10655806669834,6.074019877288353,2.3675094417222953,2.426142649102084
2,2,3.698891574255968,5.5141337132744255,30.56670556338124,17.4944656204545,11.943475115758416,6.235724103784615,2.60312531604362,2.5710392593897398
2,2,4.19522799236316,6.210851615369225,29.755125141171963,17.21561466691766,12.240341830927218,6.753419886935005,2.6329050656890343,2.7859482611028556
2,2,4.211599349052251,4.397691855478472,29.10554197942028,18.168280315058254,11.1342524047326,6.8965860432423955,2.4070469003319284,2.7073084067653093
2,2,3.143842275627617,5.282289713444027,23.503552224242664,17.68459127879856,9.9919018198112,5.91877632734603,2.1236627558651495,1.8244036786803008
2,2,3.1906242738223973,5.617923203887649,25.590538274666994,18.957443827581976,10.229529744066538,5.652177181316399,2.2462199633436475,1.878398016571457
2,2,3.5691495595779235,6.4836981401067595,28.07171035531531,20.0996824453625,10.42327962111453,6.446717839931534,2.0288488043840616,1.983887718251411
2,2,3.1105665320776077,7.303219795217481,31.13507358383289,20.751339159728442,12.507718038408031,6.033750527329956,2.2308867815671984,1.9320951970083233
2,2,3.088037601535019,7.282626899592164,25.93716414286406,21.008856616726455,12.739901030386442,6.41761166793381,2.2727012366333788,2.009836309101645
2,2,3.1616347251726946,6.561110453711283,28.02383617263537,18.15301841593477,14.302634033608616,6.570268577139944,2.0169053211743675,1.9239781284695765
2,2,3.0708547356474996,5.437249788362002,30.72733959103542,16.284165513450098,11.540129620927999,7.372205302068743,1.8723665232891726,1.726559495861157
2,2,3.198468814581415,5.48154177298742,31.74741162959214,18.005910942311253,10.44550141489037,7.873173030266171,2.1271262948404637,1.8414643288387484
2,2,2.881280016506073,5.775773983579637,34.95635759145032,21.136543440181807,9.667318133002308,6.931576962923049,1.8491196566649584,1.7783523727052486
2,2,2.681425906304224,5.549761730509463,33.68864259603519,16.571982999023373,12.111668516131301,6.482577027515222,1.7749102033379414,1.5986778814390337
2,2,2.6486529229957063,5.015479801343467,32.34203586912961,17.042182647231254,12.603258595014237,5.638644278870127,1.7640138652705508,1.647107976939244
2,2,2.839738029538661,4.951570292372688,30.176991420834483,16.970928080268024,11.14387019516722,5.199925165556189,1.7584256540666716,1.737513928785305
2,2,2.854337099637928,5.551204457377874,30.657562424024285,18.059560725466046,11.589778699743421,5.120723740801772,1.7495106594361227,1.7713468960183558
2,2,2.9030330882609263,5.657162146424738,28.350690329073874,15.629700902636074,12.39705151806131,5.484492351500669,1.8129739259563857,1.7516797416994545
2,2,3.1540701319539677,6.074877611982378,32.02748908422568,17.545385289167776,12.966549273927253,5.826134200244737,1.9209454703999818,1.767141161649138
2,2,3.210961777684406,5.517446644369065,29.578578729789445,15.705693357133534,12.002462901081557,5.791077634080856,2.009699305465296,1.869875604880783
2,2,3.147354451069804,5.099766928003257,28.42567203187097,16.65661640778099,9.877011482755798,5.83662412301301,2.2293073569215203,2.095165052068
2,2,3.1966911612107642,5.534247943899084,29.91280907098878,17.989637962808168,9.503987697243653,5.623502671214809,2.2457847182600164,2.156182702900919
2,2,3.822773829902113,5.73309111586651,33.78572652458378,17.77899166037331,8.531983365377437,6.24769411377081,2.6802240296892776,2.5042925747964775
2,2,3.7908892090800244,5.441085109528712,33.90956849116476,17.685189755461725,8.541588783458836,5.531726635462212,2.386103178933457,2.239344526337374
2,2,3.573001135697406,5.7240076771237485,31.925722690891856,18.011717656123505,8.725109884677002,5.4415186538799105,2.2932238836015584,1.9487230867243448
2,2,3.5514191444883685,6.134925759750485,33.88575631020696,17.625753906456612,7.85479940256202,5.209845990464553,2.3556291637075613,2.097371697409901
2,2,3.8116056192732275,6.004513170509945,33.589732703941266,18.750389590863737,8.674455906429444,5.196967446785055,2.2231854818609444,2.2443554306873175
2,2,3.555766856796454,7.673938227875769,34.54254748656846,18.531834878867226,9.777274140267888,6.048225780260261,2.7492518998525117,2.1920091672004296
2,2,3.3744370582649816,6.7729192689751585,30.9790797145185,20.0558261037604,9.731746036622747,6.157383013760043,2.421751270079294,2.0687802865223337
