timestamp,C1,C2,C3,C4,C5,C6,C7,C8,
17620972186,-4,-8,21,74,58,-11,-26,-13,
17620972186,22,55,102,110,116,24,12,13,
17620979512,-19,-36,-96,-87,-91,-20,-3,-21,
17620979512,-20,-68,-7,-61,-65,-27,1,-8,
17620987027,24,96,76,66,73,28,-1,15,
17620987027,-22,-74,-112,-104,-103,-15,-6,-25,
17620996693,25,49,127,124,61,13,10,27,
17620996693,-10,-11,-78,-100,-24,3,-6,-13,
17621009827,-4,-14,-76,-76,-12,8,6,-8,
17621009827,-5,-25,-58,-84,-76,-27,-7,-2,
17621024684,-4,15,8,46,38,1,-1,-1,
17621024684,-6,9,0,12,10,-1,-6,-8,
17621032169,-1,-28,1,10,-10,-1,-4,-3,
17621032169,2,48,101,27,30,15,3,2,
17621049003,-27,-83,-86,-128,-110,-23,0,-13,
17621049003,41,82,100,81,59,27,23,43,
17621056038,-18,-14,-84,-88,-19,-18,-43,-38,
17621056038,4,-15,-73,-30,-23,-2,12,6,
17621084525,-5,-13,-14,-64,-50,8,7,-5,
17621084525,-15,-46,-41,37,5,-32,-23,-8,
17621092019,0,-12,-15,-25,-19,5,19,14,
17621092019,14,23,23,45,56,13,0,13,
17621114595,-18,-3,-7,20,4,-3,4,-5,
17621114595,7,13,-9,-3,-8,-10,-11,-7,
17621136964,1,-39,-65,33,4,-13,-11,-4,
17621136964,16,15,51,67,51,15,10,15,
17621144832,-4,12,-1,-58,-49,-15,-16,-13,
17621144832,-41,-53,-83,-59,-84,-7,0,-25,
17621154058,35,76,112,74,82,42,16,30,
17621154058,-5,6,-31,-39,9,-6,-7,-11,
17621167076,-29,-35,-62,-21,-53,-20,-10,-16,
17621167076,26,0,15,47,53,13,6,24,
17621182152,-6,8,124,-21,-55,-7,10,9,
17621182152,48,89,83,92,85,56,11,34,
17621191029,-35,-51,-122,-121,-110,-13,-18,-37,
17621191029,-4,15,-13,-45,-19,-8,-3,-6,
17621197314,-2,-19,-121,-108,-37,-36,-20,-14,
17621197314,-41,-68,-21,-75,-128,-18,3,-20,
17621211952,-27,15,62,57,51,15,-6,-23,
17621211952,-12,-39,-99,-94,-77,-34,-5,-16,
17621227637,26,3,62,89,24,8,4,17,
17621227637,-28,-54,-48,-41,10,-1,-12,-18,
17621234580,20,29,-17,-1,1,-23,0,16,
17621234580,-4,6,15,-15,1,8,-6,-9,
17621249762,-17,1,-1,65,12,-31,-13,-14,
17621249762,6,-33,-120,-122,-102,-10,15,9,
17621257025,10,44,127,127,127,43,2,9,
17621257025,5,-5,20,24,40,27,0,-4,
17621272114,13,27,59,46,-28,6,2,12,
17621272114,-5,13,-4,93,71,-5,-3,-8,
17621287070,-9,-8,-6,5,54,12,-7,-11,
17621287070,0,-5,-17,-65,-81,-23,-3,-1,
17621317187,4,-36,-58,-110,-82,-41,-10,1,
17621317187,-15,30,72,48,-1,5,-5,-9,
17621332199,-5,18,101,88,45,14,3,-3,
17621332199,13,24,-12,22,33,15,17,12,
17621339636,-15,-37,-103,-61,-50,-16,-14,-18,
17621339636,14,-29,-29,2,-15,-9,3,14,
17621347142,2,-7,-8,43,27,4,4,6,
17621347142,-15,-10,-30,-63,-40,-26,-25,-17,
17621369494,-31,-34,-83,-92,-98,-13,-14,-29,
17621369494,-6,-13,-65,-54,-13,-16,-5,-8,
17621384381,27,38,40,-37,2,-1,-3,14,
17621384381,-19,-32,-59,-105,-31,1,-13,-19,
17621399636,-12,26,12,-8,13,-20,-8,-10,
17621399636,0,9,7,2,-29,-7,3,-1,
17621414485,27,42,61,64,87,54,23,19,
17621414485,-23,-41,-30,-36,-32,-25,-11,-23,
17621429404,19,0,19,67,20,-31,6,23,
17621429404,4,-7,-39,-31,-27,19,-1,7,
17621444707,-12,6,-21,121,23,1,4,-8,
17621444707,0,8,21,-42,-75,-24,-12,-6,
17621451995,1,-14,-58,-11,22,10,10,1,
17621451995,2,-7,11,5,9,-1,1,0,
17621474489,4,2,-20,-17,12,1,-1,1,
17621474489,-22,-33,-68,-102,-30,11,15,-2,
17621482150,-3,23,66,-38,-45,-26,-25,-11,
17621482150,25,39,90,127,64,13,9,20,
17621496903,-6,-31,-51,-108,-57,-5,-2,-2,
17621496903,-6,-36,-54,21,56,13,2,0,
17621512049,18,68,116,51,25,-9,8,12,
17621512049,16,-19,-89,-90,-4,28,8,7,
17621526944,-11,-39,-108,-87,4,26,4,-12,
17621526944,5,14,44,26,-7,-21,-5,3,
17621534380,-4,13,28,58,45,0,-11,-7,
17621534380,-44,-51,0,-18,-92,-32,-17,-30,
17621549443,-6,-14,63,78,51,24,6,2,
17621549443,45,59,40,-13,17,11,19,32,
17621564405,-28,-55,-56,-52,-75,0,-2,-19,
17621564405,1,32,32,86,48,-22,-11,-1,
17621571936,-11,-19,-80,-108,-47,4,-6,-12,
17621571936,-1,-13,-33,78,39,13,23,14,
17621586884,26,34,7,-22,-13,-19,-4,14,
17621586884,-14,-57,-46,-47,17,12,-10,-10,
17621594601,25,49,83,100,27,-16,8,18,
17621594601,-3,1,-36,-20,17,18,-5,-12,
17621617160,-14,-43,-99,-128,-87,-14,-10,-14,
17621617160,-1,9,-24,34,49,0,-1,4,
17621632200,15,44,45,77,22,18,11,7,
17621632200,-24,-51,-71,-118,-101,-23,-12,-20,
17621639420,12,-9,-55,-65,-27,-24,1,13,
17621639420,-2,31,64,17,10,40,13,2,
17621654598,6,33,95,73,90,37,-5,-2,
17621654598,-4,-29,-83,-88,-93,-39,-11,-13,
17621669444,8,-50,-112,-85,-26,24,12,2,
17621669444,2,39,117,100,97,39,0,0,
17621692023,-23,-52,-69,-74,-16,-23,-30,-28,
17621692023,-17,-7,73,67,-29,0,13,-3,
17621699635,9,22,20,-12,-32,-11,-10,1,
17621699635,-5,-16,9,-96,-68,-34,-17,-5,
17621721994,10,25,37,36,-33,-3,23,16,
17621721994,6,-11,-21,-9,73,15,-8,-1,
17621729565,-32,-36,-45,-37,-57,-7,1,-21,
17621729565,22,6,-8,-51,23,16,5,14,
17621751934,-14,-41,-16,-25,-48,-17,2,-6,
17621751934,-16,13,49,56,39,-9,-11,-9,
17621767212,-8,-15,-54,20,31,2,0,-3,
17621767212,-10,-41,-91,-49,-128,-34,6,-2,
17621789432,46,82,110,82,65,6,10,35,
17621789432,-30,-26,-38,-120,-83,-12,-6,-25,
17621804451,29,40,58,3,29,32,12,27,
17621804451,-12,-43,-36,-15,-46,-13,-7,-13,
17621819430,-41,-70,-45,1,-23,-14,-19,-24,
17621819430,32,127,127,127,127,15,6,19,
17621834395,21,36,-40,-57,-25,-8,-2,8,
17621834395,-6,-14,41,29,65,38,10,3,
17621849426,-17,-13,-90,-85,-38,-16,0,-9,
17621849426,17,-37,-64,-54,-40,-3,7,18,
17621856894,25,72,109,61,72,22,2,11,
17621856894,-26,-31,-50,-12,-46,-33,-23,-30,
17621871934,-26,-43,3,-17,-84,-7,11,-14,
17621871934,-1,-28,-93,-79,-41,-16,-2,7,
17621886978,27,80,127,127,66,-1,-10,16,
17621886978,-13,-33,-59,-9,37,26,8,-6,
17621894413,-3,1,-43,-43,32,-6,-3,-2,
17621894413,25,43,76,97,39,3,-1,6,
17621909410,-19,-78,-128,-128,-128,-51,0,-11,
17621909410,1,37,89,89,73,31,6,6,
17621924372,-2,11,48,-13,76,20,-18,-5,
17621924372,-6,-41,-110,-128,-114,1,25,4,
17621939444,14,-17,25,18,31,17,-3,1,
17621939444,-24,-2,114,-10,-27,27,-2,-17,
17621954421,-5,42,30,49,34,-11,-11,-13,
17621954421,-27,-23,-23,-79,-74,-25,-11,-26,
17621969401,-10,-29,-73,-24,-21,-11,14,4,
17621969401,10,-16,-84,-128,-73,-21,-4,9,
17621991932,13,44,93,96,99,32,6,7,
17621991932,3,-16,-51,-80,-5,9,11,1,
17622014429,-32,-84,-128,-128,-128,-15,-3,-22,
17622014429,4,39,56,79,77,6,2,7,
17622029386,-28,-30,-28,-13,-49,-22,-11,-23,
17622029386,3,19,-23,-13,1,-23,-13,-2,
17622044414,-17,9,7,-42,-40,-8,-20,-19,
17622044414,-30,-47,-76,53,22,-5,-28,-29,
17622059446,37,85,127,127,84,19,6,22,
17622059446,-21,-26,-41,-45,-37,-35,-27,-22,
17622074390,-30,-78,-126,-128,-85,-22,-17,-22,
17622074390,-9,14,-45,-51,-45,-32,-17,-6,
17622089421,6,18,35,73,17,15,12,5,
17622089421,-9,-5,-14,-53,-9,-6,-3,-5,
17622096938,8,33,127,127,81,22,4,6,
17622096938,30,6,-32,-41,16,17,11,14,
17622111953,15,16,-1,10,23,24,24,12,
17622111953,-23,-40,-6,26,-46,-28,-7,-13,
17622126908,10,13,5,-78,5,11,5,10,
17622126908,3,27,44,25,28,13,-9,1,
17622134357,-5,0,-76,-69,-5,-1,3,-4,
17622134357,5,-33,-9,-42,-55,-1,21,14,
17622149438,3,45,67,61,63,6,-7,-2,
17622149438,8,-40,-128,-107,-45,-13,4,-2,
17622156893,-1,-9,13,-19,-29,-2,-5,-1,
17622156893,-5,-28,-95,-43,-30,-17,-17,-8,
17622171897,-2,10,-10,-57,-34,-15,-17,-16,
17622171897,-27,-33,-63,-42,-14,-1,-9,-22,
17622186938,19,2,7,-37,-63,-42,0,21,
17622186938,-11,6,-21,-43,-61,-10,-1,-4,
17622194390,10,-2,26,95,62,30,13,11,
17622194390,-14,-17,-9,3,-30,-23,-23,-18,
17622209411,2,8,32,35,28,6,0,0,
17622209411,26,12,29,50,50,17,11,17,
17622216920,-32,-61,-110,-75,-66,1,-11,-24,
17622216920,16,64,127,127,66,-8,2,14,
17622231894,17,67,118,104,63,9,14,25,
17622231894,15,36,30,-46,74,39,-4,5,
17622246891,13,19,88,105,36,23,10,5,
17622246891,-19,-14,-3,1,43,-13,-26,-24,
17622261926,-13,-38,-74,-128,-107,-31,-12,-12,
17622261926,-1,-12,-98,-96,-53,-10,26,13,
17622276941,21,12,72,99,45,1,-6,8,
17622276941,9,26,-6,-80,7,37,15,11,
17622284396,-27,1,-34,-33,-24,-22,-17,-26,
17622284396,18,9,92,127,127,26,2,15,
17622299412,16,69,125,112,74,24,27,26,
17622299412,12,6,-36,-33,48,19,-4,-2,
17622314424,-22,-41,-109,-59,-71,-41,-15,-13,
17622314424,35,60,110,127,82,31,21,30,
17622344417,-23,-31,-31,-74,-54,-4,-15,-18,
17622344417,11,58,48,111,86,29,3,3,
17622351931,26,2,50,-9,39,6,8,16,
17622351931,-54,-51,0,-56,-103,-18,-2,-26,
17622366867,6,-7,6,98,103,10,-7,3,
17622366867,-8,15,63,25,-28,-7,5,-3,
17622382084,19,7,17,77,56,4,4,20,
17622382084,-21,-43,-59,-73,-102,-35,-19,-19,
17622396955,-30,-101,-128,-128,-123,-30,-1,-21,
17622396955,40,14,-19,71,91,18,9,28,
17622411925,-22,-5,-39,-67,-7,10,-6,-18,
17622411925,2,-2,-71,3,-15,-14,-10,-10,
17622427094,-13,-46,-98,-128,-61,-22,-12,-13,
17622427094,18,38,127,124,52,24,12,23,
17622434427,22,44,52,62,-18,-5,6,14,
17622434427,-20,-41,-12,-89,-2,6,-1,-12,
17622449481,-9,7,55,104,60,5,-5,-11,
17622449481,-22,-56,-107,-73,-40,-30,-13,-18,
17622456910,11,57,100,23,-8,3,9,12,
17622456910,7,-36,-86,-91,-69,-11,-11,3,
17622479644,1,-32,-7,4,22,22,5,1,
17622479644,22,88,127,112,39,9,6,10,
17622502102,-30,-101,-128,-121,-50,-46,-25,-28,
17622502102,-9,23,107,26,-57,16,24,7,
17622509465,-2,12,-19,66,85,-22,-31,-10,
17622509465,-21,-24,-25,-88,-97,-23,-12,-18,
17622524500,43,43,32,15,-2,13,31,39,
17622524500,2,12,38,63,124,66,9,4,
17622532120,-40,-40,-111,-128,-76,-27,-32,-41,
17622532120,6,-4,26,46,26,-1,4,8,
17622539627,-8,-1,64,52,-26,-17,-12,-13,
17622539627,-3,38,57,40,76,32,14,2,
17622554587,29,84,127,84,47,16,13,26,
17622554587,12,15,78,84,25,6,-9,-2,
17622569452,-19,-42,-67,-65,-27,-3,1,-10,
17622569452,-11,1,-15,31,52,-27,-28,-17,
17622576927,-8,-54,-128,-29,-60,-4,9,-3,
17622576927,20,61,97,72,31,38,43,32,
17622591979,23,9,-40,-5,19,-12,-13,5,
17622591979,-18,-36,-46,-13,-14,-22,-23,-18,
17622614610,1,-2,-31,-62,-46,-24,-12,-1,
17622614610,8,-10,35,78,62,26,22,15,
17622622141,10,24,63,-103,-53,1,11,14,
17622622141,-2,38,30,97,56,12,-2,-5,
17622636964,-21,-5,25,-4,-37,-22,-17,-24,
17622636964,-15,-78,-94,-104,-68,-21,-18,-21,
17622644639,11,46,123,127,66,5,14,17,
17622644639,30,37,3,-128,-19,-1,-15,9,
17622659605,27,57,61,87,93,-1,8,23,
17622659605,-28,-50,-82,-128,-86,-6,-4,-22,
17622674652,-34,-87,-128,-128,-54,6,5,-14,
17622674652,3,51,101,124,100,23,9,12,
17622697095,27,7,6,15,47,14,-8,9,
17622697095,-13,-18,-45,-10,-39,-24,-9,-12,
17622704637,15,2,38,42,-23,-2,10,11,
17622704637,-21,-55,-96,-68,-24,-15,-6,-15,
17622719433,2,-15,-70,-108,-52,8,4,-2,
17622719433,-3,-35,-113,-60,-58,-39,-5,-3,
17622734527,-1,-1,14,-4,-8,15,6,5,
17622734527,13,54,94,102,87,29,4,9,
17622742023,6,21,89,74,38,19,5,1,
17622742023,-20,-50,-87,0,-16,-19,-16,-21,
17622757106,18,-3,18,62,71,36,16,16,
17622757106,-29,-36,-36,-45,-33,-21,-20,-21,
17622771962,-21,-39,-94,-115,-103,-30,-13,-22,
17622771962,27,37,117,127,109,17,14,24,
17622787139,-47,-103,-128,-128,-128,-48,-14,-30,
17622787139,25,85,127,127,115,23,12,27,
17622794658,9,-10,-84,-94,-59,-23,-10,-10,
17622794658,-2,-34,-64,-52,7,5,-2,-5,
17622809629,-10,33,81,-6,-19,16,3,-7,
17622809629,26,7,53,96,52,0,5,20,
17622816992,-35,-14,-13,-43,-41,-33,-24,-26,
17622816992,-26,-10,49,21,-30,1,-4,-15,
17622832211,-9,33,127,127,48,2,7,2,
17622832211,25,31,10,-46,-46,-5,2,9,
17622846980,-37,-72,-80,-76,-92,-8,0,-21,
17622846980,40,88,120,120,127,9,-2,28,
17622854492,-21,-45,-128,-128,-79,4,-20,-28,
17622854492,3,21,83,71,20,5,15,11,
17622869414,-2,-3,-96,-83,-34,18,13,-2,
17622869414,-3,-30,-53,-3,-52,-25,-8,-7,
17622877062,-5,-9,6,8,10,-11,1,6,
17622877062,7,0,-2,23,4,12,8,10,
17622907101,53,61,7,-45,79,51,14,28,
17622907101,-25,-53,-78,-63,-54,-18,-12,-22,
17622922205,2,22,79,96,51,-12,-10,-3,
17622922205,-28,-31,-103,-128,-108,-40,-2,-17,
17622929481,-14,-27,5,-5,-43,-27,-3,-3,
17622929481,43,32,11,-10,24,24,10,27,
17622944662,-12,-23,-18,-13,-1,13,-8,-13,
17622944662,-14,9,74,93,49,-16,-34,-18,
17622951936,1,11,2,19,50,21,12,2,
17622951936,-20,-58,-128,-110,-60,-16,0,-15,
17622959668,13,33,96,127,75,-11,-16,-1,
17622959668,-2,-9,-47,-81,-19,7,-2,-7,
17622974471,-42,-63,-49,-81,-62,-14,-20,-34,
17622974471,4,45,119,100,16,11,23,20,
17622989610,29,69,33,-21,23,-1,-8,8,
17622989610,-24,-103,-128,-128,-90,-18,-10,-19,
17622997087,8,39,127,127,50,11,15,16,
17622997087,-2,-20,-71,-69,-45,-27,-14,-15,
17623019485,2,-23,-108,-114,-51,-6,-15,-14,
17623019485,-12,-23,69,41,-33,-9,4,2,
17623034396,12,40,43,80,18,-15,-10,-1,
17623034396,-24,-72,-32,-46,-13,17,1,-17,
17623042120,10,17,40,127,89,-3,2,8,
17623042120,-23,-23,-95,-107,-79,-28,-22,-27,
17623057173,-30,-80,-96,-126,-93,15,6,-12,
17623057173,37,127,127,127,96,21,11,28,
17623072097,-21,-90,-96,-120,-115,-30,13,-2,
17623072097,28,51,63,67,42,17,5,28,
17623086857,3,37,70,83,84,35,-6,-2,
17623086857,-33,-43,-57,-75,-94,-26,-3,-20,
17623094667,14,53,111,104,52,4,7,10,
17623094667,18,6,7,-108,-57,-21,-9,2,
17623109445,-23,-48,-28,-26,13,17,6,-9,
17623109445,16,59,108,110,100,7,-12,3,
17623117148,-34,-60,-103,-128,-117,-32,-19,-26,
17623117148,-2,-19,-58,12,42,8,23,10,
17623132069,15,2,-45,11,-12,-19,-5,11,
17623132069,6,1,-41,8,-22,13,11,9,
17623139598,29,46,95,73,40,7,-1,14,
17623139598,-26,-37,-97,-87,10,8,-18,-26,
17623154602,16,108,127,127,10,4,5,18,
17623154602,28,23,39,31,55,23,10,17,
17623169455,-29,-46,-74,-92,-54,-11,-11,-30,
17623169455,-24,4,87,56,-53,-45,-4,-10,
17623177116,18,34,8,40,108,16,-21,1,
17623177116,-13,-29,29,-28,-16,17,10,-5,
17623192133,14,29,71,-23,-1,13,13,17,
17623192133,8,-16,-108,-84,-16,3,-6,-6,
17623199626,-21,-35,-13,5,-30,-18,1,-4,
17623199626,27,54,115,116,92,14,7,20,
17623214486,0,3,-105,-128,-19,-6,-17,-16,
17623214486,-47,-97,-76,-46,-46,-12,-2,-21,
17623229597,62,126,122,116,101,34,18,37,
17623229597,-11,-75,-128,-128,-74,-22,-26,-28,
17623237116,-38,-58,-52,-46,-45,-13,7,-18,
17623237116,46,52,81,87,80,0,5,36,
17623252061,-32,-26,-4,-82,-59,-5,-1,-22,
17623252061,-2,52,125,127,117,28,1,4,
17623259471,41,28,-19,-103,-18,23,18,28,
17623259471,-34,-70,-128,-70,-99,-22,-14,-29,
17623274643,-20,-35,-86,-44,-9,-6,-19,-23,
17623274643,-12,-31,-50,-36,-46,-19,-5,-11,
17623289555,20,56,113,127,84,21,10,19,
17623289555,-44,-67,-128,-128,-122,-29,-29,-46,
17623297139,0,-2,38,69,-1,-14,9,15,
17623297139,28,32,-12,115,85,21,-4,12,
17623312028,6,15,75,-15,-10,16,22,10,
17623312028,4,-7,-52,-50,35,6,-6,-6,
17623319414,-21,-75,-64,-90,-73,-15,8,-11,
17623319414,1,49,83,72,71,-6,-6,4,
17623334433,14,51,93,107,83,8,-7,8,
17623334433,0,17,6,-99,-37,2,-1,-5,
17623356995,35,15,32,73,50,23,18,26,
17623356995,-44,-56,-68,-73,-78,-23,-29,-40,
17623379402,-13,-10,21,91,7,-27,-17,-10,
17623379402,12,17,69,13,-25,8,20,16,
17623394575,-22,-39,-59,-52,-47,-4,-6,-18,
17623394575,19,14,5,-22,-40,-13,5,22,
17623401905,9,6,-71,-14,62,2,-10,5,
17623401905,-15,11,121,94,-6,4,-5,-5,
17623424627,9,27,39,-8,35,32,12,11,
17623424627,-19,-57,-128,-119,-45,-6,-11,-15,
17623432130,-1,22,59,65,-25,-14,10,4,
17623432130,-7,14,-31,-85,3,-24,-30,-22,
17623439445,-31,-37,-21,-88,-128,-35,-11,-19,
17623439445,46,47,83,127,125,42,11,36,
17623447124,-21,-60,-120,-128,-10,30,-1,-19,
17623447124,-21,-6,43,76,-58,-33,1,-8,
17623461915,5,20,121,84,11,-22,0,6,
17623461915,9,29,37,-20,21,5,-10,-2,
17623476950,-2,-47,-87,-106,-70,4,10,1,
17623476950,-11,-33,-89,-71,-32,-21,-16,-5,
17623492123,12,54,113,88,94,17,1,14,
17623492123,-32,-54,-102,-116,-84,-18,-6,-23,
17623507107,32,83,127,127,110,5,-12,7,
17623507107,2,-4,-51,-126,-60,28,18,0,
17623522058,-7,6,-25,-104,-65,-17,-5,-8,
17623522058,-18,-43,-80,-19,15,24,12,-7,
17623536976,3,-3,-66,-38,-68,-58,-10,0,
17623536976,-8,6,29,-62,-29,16,-2,-4,
17623544468,41,61,112,110,105,44,12,33,
17623544468,0,-8,8,-90,-46,1,7,-4,
17623559479,8,1,-21,-27,30,18,12,9,
17623559479,-14,-11,-23,73,15,0,-10,-12,
17623574600,-40,-49,-46,-128,-56,12,0,-27,
17623574600,-2,7,-15,18,22,-16,6,6,
17623589680,28,-28,-93,-39,-34,-5,11,26,
17623589680,-14,-23,38,66,43,17,-1,2,
17623597079,22,55,54,27,0,-5,12,11,
17623597079,-7,-6,-17,-20,26,-7,-24,-21,
17623612264,-38,-58,-81,-78,-82,-29,-21,-31,
17623612264,4,29,74,45,-3,5,5,1,
17623627050,7,-17,-62,-104,-43,29,20,12,
17623627050,-1,11,119,127,63,-13,-1,7,
17623641977,-39,-71,-128,-128,-128,-47,-39,-38,
17623641977,26,14,82,98,24,0,26,35,
17623656970,12,15,8,-12,83,46,10,11,
17623656970,-34,-10,36,-53,-51,-27,-19,-27,
17623664518,27,54,109,127,69,12,15,22,
17623664518,-12,-22,-84,-53,-45,20,8,-8,
17623679465,25,28,-14,-28,-18,-2,-8,6,
17623679465,-3,-19,-27,34,64,30,12,5,
17623694549,-45,-16,18,33,7,-15,-13,-30,
17623694549,20,16,-67,-57,-72,5,18,17,
17623709535,3,18,1,67,61,14,-4,0,
17623709535,-20,-46,-19,-83,-30,-11,-18,-15,
17623716907,31,69,112,127,115,12,6,19,
17623716907,-34,-55,-91,-128,-73,-21,-11,-25,
17623732122,30,43,93,127,59,35,21,21,
17623732122,-13,-27,-23,-47,-79,-30,-11,-9,
17623739424,-23,-41,-104,-100,-29,8,10,-5,
17623739424,23,44,112,88,82,-21,-29,6,
