timestamp,C1,C2,C3,C4,C5,C6,C7,C8,
175884769487,-8,48,67,19,101,-19,-21,7,
175884769487,-5,-8,5,-28,-78,-10,20,14,
175884778974,3,-47,-101,-81,-67,-15,-45,-48,
175884778974,11,12,24,55,65,47,38,2,
175884784489,38,-12,66,-19,-12,43,-27,2,
175884784489,7,18,-63,-2,-8,-65,-11,25,
175884799521,1,38,84,21,61,67,23,2,
175884799521,19,-5,-27,-44,-78,-37,-5,10,
175884822066,20,-6,66,37,-13,-24,-3,24,
175884822066,-10,12,-95,-62,56,34,0,-7,
175884836997,-10,-17,73,22,-55,-8,38,15,
175884836997,66,11,-70,-33,-72,-8,2,-4,
175884853466,-35,12,68,54,46,-17,-28,0,
175884853466,-12,-28,-65,-57,-13,-34,-11,5,
175884867068,30,10,-75,30,-17,-71,5,16,
175884867068,28,21,77,13,-44,21,9,8,
175884881927,-45,-63,-41,-47,45,-29,-8,0,
175884881927,-19,-28,-37,-16,-46,-38,-23,-15,
175884889734,14,43,88,28,29,104,23,-13,
175884889734,-29,-17,3,-12,-94,-88,33,20,
175884919489,-45,-41,-63,-85,-32,-57,-53,-16,
175884919489,10,40,-76,64,-16,51,16,1,
175884942442,22,12,-67,-30,-6,-47,0,2,
175884942442,-14,-9,102,16,3,3,-20,-27,
175884972113,-24,-46,-58,-95,-49,-64,-15,-35,
175884972113,-11,17,11,-11,91,19,-26,-7,
175884995941,17,23,49,4,-35,-3,-41,44,
175884995941,-4,-6,59,26,-51,-67,-5,-11,
175885024487,25,34,30,67,52,68,24,21,
175885024487,-20,-25,-41,-38,-9,63,15,9,
175885033373,-6,-11,-61,-22,-41,-12,10,-24,
175885033373,60,64,95,66,97,5,-9,15,
175885054490,-21,-2,77,47,74,28,31,-5,
175885054490,-14,-48,-102,6,28,-5,-31,-19,
175885084513,9,29,25,-23,-78,-3,3,7,
175885084513,10,-25,18,-104,45,11,3,10,
175885099493,14,21,-62,-18,-32,29,9,-4,
175885099493,-6,-43,24,39,-43,-20,-18,16,
175885129469,-3,-5,127,42,12,50,26,16,
175885129469,26,55,-119,33,19,22,-28,-5,
175885137286,-6,-4,-20,-2,-10,12,5,-10,
175885137286,8,24,81,72,41,-25,21,12,
175885151955,-5,-3,39,-5,-67,-7,-21,-6,
175885151955,-9,39,-18,-14,-34,18,-5,-18,
175885159459,-8,-39,5,-29,26,11,-15,-10,
175885159459,4,-6,-78,-51,-47,2,8,-4,
175885176573,4,-6,-26,37,67,2,11,5,
175885176573,-6,22,87,80,15,-18,34,9,
175885196986,-4,12,66,78,-25,-59,0,8,
175885196986,-8,1,-54,-81,-17,58,-19,-31,
175885219442,-5,-24,-15,-47,19,-3,28,-20,
175885219442,-1,-11,-2,-14,1,16,-47,17,
175885242007,2,31,51,-4,-23,-10,-4,-26,
175885242007,-6,-26,-23,21,-19,2,28,21,
175885264688,1,21,-18,-4,-4,-2,-6,-11,
175885264688,-8,-5,44,20,27,-22,-49,-23,
175885272044,1,9,-3,17,-25,-28,0,15,
175885272044,5,-17,-50,-6,5,35,-8,14,
175885279564,-7,27,22,-2,99,49,17,16,
175885279564,3,-9,69,24,8,-31,-13,-15,
175885302637,-9,-28,-43,13,8,-16,-24,13,
175885302637,3,19,6,-13,-50,30,33,-5,
175885309567,3,-22,-20,-58,-12,-57,30,9,
175885309567,-4,6,-46,-14,-5,17,2,-5,
175885331929,1,-5,2,13,-99,-8,13,-16,
175885331929,-1,28,-22,-4,66,51,-23,-9,
175885354498,11,17,51,46,13,-3,22,34,
175885354498,5,-25,-45,-4,-66,-44,4,8,
175885369471,4,-24,59,6,11,-10,10,22,
175885369471,-25,18,-28,-15,-46,2,20,5,
175885376987,-18,7,13,-5,69,41,-44,-42,
175885376987,-11,-10,16,8,-50,-11,5,11,
175885392158,-5,1,-28,-22,-2,-14,-7,-39,
175885392158,11,11,-11,43,-2,32,29,33,
175885414510,-3,-57,11,-14,-48,-11,30,14,
175885414510,1,26,118,29,11,20,-8,-2,
175885421997,20,22,-115,-22,39,7,23,37,
175885421997,-8,39,127,53,-8,9,-13,-20,
175885467132,2,-7,-52,-41,-52,-4,-11,-4,
175885467132,-8,-37,-8,5,87,8,17,-9,
175885474578,1,-2,21,-22,19,-20,-45,7,
175885474578,-11,-24,-102,9,-52,5,25,2,
175885496997,-8,32,44,124,99,28,-8,10,
175885496997,8,-20,-48,-98,-84,-27,-1,-3,
175885504470,3,-13,-92,-27,59,-14,-37,-9,
175885504470,14,20,-51,36,-40,46,48,24,
175885519478,-10,-10,74,-3,-63,-47,-13,-8,
175885519478,5,20,124,29,23,29,13,6,
175885527189,-3,-16,-43,-2,-20,13,23,28,
175885527189,-22,-44,52,-96,-6,-28,-34,-52,
175885534605,2,-29,24,-54,-1,36,17,-2,
175885534605,1,13,-41,28,3,-10,29,7,
175885549544,4,12,29,2,9,-38,30,1,
175885549544,-22,-24,-62,16,-61,-25,-65,0,
175885556982,7,-3,11,-32,-17,18,47,-1,
175885556982,22,54,99,57,101,22,22,7,
175885579647,13,-22,-49,33,65,-6,-30,8,
175885579647,1,16,33,-32,-19,-9,14,9,
175885594479,-15,18,-29,-12,90,33,7,-27,
175885594479,-3,-27,-106,9,-40,-30,-7,-15,
175885602159,20,52,59,38,13,36,15,33,
175885602159,1,-21,32,41,45,20,32,20,
175885609413,0,-20,36,4,14,-17,13,10,
175885609413,-23,-38,-112,-61,-82,-15,-34,-21,
175885631964,6,-16,22,20,91,-14,-17,-22,
175885631964,2,-10,-27,-6,22,12,11,21,
175885639680,-5,-12,-82,-38,-5,1,1,9,
175885639680,9,22,42,88,8,-1,-6,-1,
175885647050,-12,-28,58,-51,-81,-17,13,-8,
175885647050,6,3,-83,7,89,7,5,4,
175885669715,3,-13,-102,-58,-31,-11,-9,-6,
175885669715,-1,28,120,50,39,-21,-15,-16,
175885692216,16,29,10,80,94,52,35,12,
175885692216,5,10,-59,-43,-55,-4,6,16,
175885707123,-4,-10,-11,38,67,-10,-10,9,
175885707123,-2,-4,78,34,-19,17,14,5,
175885714392,-9,-28,-63,-58,-28,16,24,-29,
175885714392,-16,-31,-2,-41,6,15,-33,-13,
175885721895,-15,-27,-22,-18,-8,-70,-52,3,
175885721895,31,33,70,59,58,-11,23,17,
175885744598,16,55,91,84,112,40,-6,6,
175885744598,-15,-41,14,-41,-42,23,24,-2,
175885759704,-5,-9,127,-16,-31,-30,-53,-2,
175885759704,-15,-25,-85,-10,8,25,-13,-17,
175885774568,1,-14,64,5,-65,-35,58,6,
175885774568,-12,6,-85,-63,43,-32,-29,17,
175885781964,20,56,55,64,-79,13,-17,10,
175885781964,-13,-31,64,27,61,17,-8,-33,
175885789715,2,-6,-42,16,38,54,-15,9,
175885789715,0,6,-47,-15,-67,-36,0,5,
175885804441,9,12,78,-26,26,11,1,4,
175885804441,4,13,43,37,-57,2,-4,-5,
175885827134,5,26,-46,24,-5,24,34,6,
175885827134,13,3,29,-32,53,35,15,21,
175885834685,2,-9,-17,-20,-21,-23,-13,-8,
175885834685,-5,-16,-54,-38,-27,5,11,-1,
175885842172,-10,-12,10,39,39,9,-11,-1,
175885842172,-12,5,59,-20,27,46,1,6,
175885864560,7,30,-62,-10,-25,-14,0,-6,
175885864560,25,20,77,64,-31,5,17,27,
175885872058,-9,-18,-42,-61,-128,-28,-1,5,
175885872058,-9,-43,-11,25,87,14,5,0,
175885894551,3,1,-21,-18,21,45,-2,-3,
175885894551,-3,-5,-1,30,33,-32,-12,-22,
175885917114,5,33,41,49,22,84,7,7,
175885917114,9,-7,-44,16,-99,-36,12,12,
175885924601,12,4,-48,-38,70,0,-24,-3,
175885924601,1,25,32,-16,33,2,26,-5,
175885939503,-7,-35,-49,2,6,-44,-11,9,
175885939503,-6,-7,53,-23,53,11,-14,1,
175885954711,2,12,-48,-38,-44,-74,-21,-20,
175885954711,12,27,12,29,3,85,4,20,
175885977204,8,-6,-23,-17,-28,24,22,18,
175885977204,-4,14,-49,-68,-94,-79,-31,-13,
175885984613,2,8,49,14,62,55,-10,-3,
175885984613,7,-5,99,50,-91,-2,30,-1,
175885999526,-9,-14,-107,-46,38,-9,2,1,
175885999526,13,16,27,13,22,-10,13,-7,
175886006892,0,-2,69,7,-17,-7,-19,5,
175886006892,-14,-23,-70,-46,-49,-4,-15,-17,
175886029497,14,30,75,69,-2,-22,20,21,
175886029497,7,-25,-5,-67,10,-3,-6,11,
175886036979,8,72,111,86,-83,-26,-12,-14,
175886036979,9,23,-123,-42,17,9,-5,10,
175886052160,-20,-41,9,-26,31,33,38,-10,
175886052160,4,16,-17,12,54,4,-29,7,
175886059626,-7,-13,11,-26,-3,39,16,-11,
175886059626,3,-23,19,-8,35,-52,6,4,
175886074690,-8,11,-82,3,-19,20,-33,-15,
175886074690,1,10,100,86,42,28,4,14,
175886082220,1,-40,-117,-80,-13,-19,17,-26,
175886082220,-6,9,-51,-6,-56,23,-15,14,
175886089468,17,19,99,27,-70,-41,-19,19,
175886089468,-22,-41,-9,-32,26,19,20,-3,
175886104458,-11,-19,-22,-97,-106,-66,-16,-5,
175886104458,13,50,89,52,50,47,18,-10,
175886111872,13,14,-105,-13,127,26,27,6,
175886111872,3,-6,81,-27,-114,-16,-15,17,
175886119724,-16,-10,-115,28,62,0,-11,-29,
175886119724,1,26,65,39,-26,7,-7,-13,
175886142026,-8,-25,-52,-54,-29,-16,34,4,
175886142026,7,6,94,51,37,-21,-19,1,
175886157292,-7,-11,21,70,13,48,9,4,
175886157292,-5,-11,-105,-29,37,-79,-4,-29,
175886164481,8,54,89,33,119,46,-22,-5,
175886164481,-12,-70,-72,33,-83,-20,17,-4,
175886187183,2,38,-2,-64,-6,45,-25,17,
175886187183,11,36,90,50,55,-15,14,1,
175886194501,0,-31,38,-27,-61,-45,17,-11,
175886194501,-10,-12,-86,-44,-17,-9,7,-9,
175886209374,8,12,-37,57,60,-3,-7,10,
175886209374,-3,3,67,32,7,50,-18,1,
175886216950,-16,-40,-75,-38,-70,-26,-21,-16,
175886216950,11,43,51,24,13,-16,32,9,
175886224645,-1,3,-52,-26,-66,-88,12,-3,
175886224645,-1,-13,76,38,17,8,-16,14,
175886247068,-10,-27,-46,-63,35,-16,-9,-18,
175886247068,5,28,-73,6,-72,5,11,11,
175886254434,2,-25,-36,-19,-67,-30,-26,4,
175886254434,-10,2,-92,9,107,22,-5,-5,
175886269646,26,66,89,89,69,2,10,29,
175886269646,-4,-22,33,-9,-16,15,20,9,
175886277108,-2,16,-50,-16,-30,-62,-23,-12,
175886277108,4,2,99,4,15,26,-4,-11,
175886307216,4,12,66,79,35,33,-12,-1,
175886307216,-7,-26,7,-19,-102,-77,23,-9,
175886314418,10,-29,-61,-6,-28,-14,15,20,
175886314418,3,16,-23,25,23,-5,-12,-8,
175886337104,2,15,106,-6,-26,7,20,7,
175886337104,-8,-16,-110,-53,-41,15,-9,11,
175886359631,-1,14,35,-2,-17,-29,20,-1,
175886359631,-3,-29,69,30,-30,-15,-27,7,
175886374491,8,29,127,126,110,55,-7,8,
175886374491,-8,-10,-101,-90,-78,-58,4,-21,
175886381969,-8,-18,28,-70,-40,-16,3,10,
175886381969,11,36,48,70,43,8,26,-1,
175886397208,-5,-12,-43,-36,-76,19,-10,-15,
175886397208,5,3,9,0,-28,9,16,22,
175886427180,2,-5,47,14,3,-53,19,-28,
175886427180,-1,-4,31,-16,-34,0,-16,6,
175886442234,4,16,-25,-39,13,5,20,-7,
175886442234,7,8,45,17,16,15,20,32,
175886464504,-8,-16,-48,-48,-90,-22,-16,-16,
175886464504,-4,-11,-35,30,1,-3,-55,-14,
175886472178,6,22,116,47,39,-6,38,11,
175886472178,-4,-12,-35,-31,-25,-8,-5,12,
175886494469,-5,-15,-4,3,23,7,-24,-17,
175886494469,-10,-34,-30,-67,-61,-5,-12,0,
175886501964,-5,-7,-56,32,38,-28,-11,-7,
175886501964,9,27,-2,20,-51,1,9,-4,
175886509412,-4,-12,13,36,62,41,15,21,
175886509412,7,25,15,22,-9,-17,3,-3,
175886524598,-19,-42,31,-77,-48,-14,-26,-8,
175886524598,-3,2,-90,-31,-62,-44,-35,-44,
175886532111,-5,-20,18,48,15,8,17,2,
175886532111,-15,-30,-70,-57,-24,-5,-12,-8,
175886546970,-6,-14,-29,-42,-7,11,24,16,
175886546970,-8,-11,-63,50,40,-32,1,-31,
175886554553,9,39,9,7,4,6,-25,2,
175886554553,9,21,57,19,-43,6,27,16,
175886561930,-10,-22,77,19,6,-7,0,4,
175886561930,10,0,-58,-40,-71,5,12,16,
175886577092,10,39,56,35,71,-18,-65,-13,
175886577092,-15,-36,-26,1,46,12,33,8,
175886584466,-8,-29,-48,-16,-31,-3,4,-13,
175886584466,8,36,-12,66,56,36,-2,9,
175886606956,-11,-11,-51,-61,-56,-4,-11,-15,
175886606956,-5,-12,-11,29,-3,-38,-36,-15,
175886614411,19,36,28,36,18,25,34,31,
175886614411,-2,-10,127,24,49,16,-39,13,
175886652214,-17,-19,-128,-63,-7,-38,-14,-4,
175886652214,-2,-14,52,7,-82,-9,36,-27,
175886659511,-11,-16,-33,15,-51,-5,-14,-24,
175886659511,5,0,-49,-16,49,18,9,-5,
175886667175,-18,-23,-37,-35,48,60,9,-8,
175886667175,19,19,41,4,31,-28,13,15,
175886689463,2,-1,28,-19,-45,-27,-14,5,
175886689463,-3,9,-21,-9,61,-2,22,-19,
175886704472,-7,-17,-117,-39,74,1,-3,10,
175886704472,-6,-8,10,-42,18,15,-41,-32,
175886719479,-7,-33,-22,24,-49,16,56,-46,
175886719479,2,26,94,-11,29,-4,-43,8,
175886742037,-2,-17,-7,6,-44,16,47,2,
175886742037,5,28,64,6,-20,-37,7,12,
175886757016,-4,-3,-72,-16,-27,-33,-18,-14,
175886757016,-11,-27,15,13,13,24,6,3,
175886809411,2,8,26,-1,44,43,-4,12,
175886809411,11,33,-3,41,-6,-15,9,30,
175886817010,-5,-28,59,-10,-61,-6,46,-16,
175886817010,2,7,-32,41,31,-21,-38,-9,
175886824677,0,-6,7,40,-52,-22,-54,11,
175886824677,-15,-28,-115,-67,14,7,5,-14,
175886854498,2,25,66,45,18,-53,7,-17,
175886854498,-3,-1,30,0,-58,9,-2,-3,
175886914360,-11,-31,-103,-26,-44,-36,11,-3,
175886914360,17,29,70,32,44,-18,-17,5,
175886929612,-5,-11,47,15,61,10,11,-1,
175886929612,-19,-35,-89,-49,-76,-12,-40,-38,
175886944347,6,-3,11,-18,13,-4,-27,19,
175886944347,-8,-9,10,2,-19,34,1,-35,
175886982201,-10,-2,2,12,-59,-49,3,-10,
175886982201,1,-30,-55,-24,44,-7,-28,28,
175887004392,1,21,43,1,-30,30,-4,-18,
175887004392,-5,4,76,29,4,4,14,-21,
175887034471,-15,-19,15,-9,-6,-9,-56,-13,
175887034471,19,24,82,26,81,32,18,38,
175887049665,-4,-34,-23,-40,-44,1,-40,-15,
175887049665,-12,-22,-24,2,-41,1,20,-19,
175887057378,-6,27,53,35,-9,-7,-14,-3,
175887057378,16,40,-63,-30,13,23,28,-6,
175887079556,5,-10,1,20,26,7,10,-2,
175887079556,-6,-4,-23,-17,-87,-80,-28,1,
175887109394,9,29,69,56,62,29,-9,36,
175887109394,-12,-33,-40,-20,-46,40,15,-14,
175887116913,4,17,-16,26,65,-29,39,11,
175887116913,-10,-44,28,11,-128,-8,-35,15,
175887146984,-2,12,-76,-42,-15,-9,21,-32,
175887146984,15,45,85,38,43,27,-51,31,
175887161945,7,38,102,50,-65,-25,-2,21,
175887161945,-44,-37,-106,-66,8,-43,-22,-45,
175887192184,-4,-3,-44,-51,-9,27,22,-26,
175887192184,4,9,35,16,-11,-42,-91,-23,
175887206930,13,16,1,16,59,27,68,14,
175887206930,-2,-27,-38,-23,-72,-34,14,17,
175887214673,2,32,68,69,4,-35,23,-8,
175887214673,9,-19,7,24,-6,33,-2,4,
175887244689,9,93,76,127,-31,-38,-41,-25,
175887244689,-5,-9,45,-42,-9,37,-27,-17,
175887266929,-3,-7,41,12,-7,-24,-6,4,
175887266929,-22,-32,-52,-73,-14,2,1,-21,
175887281941,15,25,47,-11,48,-22,-21,-6,
175887281941,-16,-10,-74,-9,-50,-16,-28,-16,
175887297004,19,39,30,7,17,10,17,6,
175887297004,0,-8,70,50,49,26,-3,-8,
175887304455,-2,5,-4,-32,-109,5,57,15,
175887304455,-12,-47,-79,-77,92,-31,-42,-14,
175887319634,13,26,86,55,110,93,11,25,
175887319634,-10,-19,62,37,-27,-33,9,-13,
175887334695,7,-7,66,28,61,61,76,14,
175887334695,-4,8,8,-2,13,-44,-86,5,
175887342279,1,-4,2,41,19,41,12,3,
175887342279,-19,-9,27,-18,-24,-19,-9,-30,
175887357031,-15,-15,-32,-29,-128,-68,-25,-6,
175887357031,10,2,3,-22,48,50,6,-3,
175887364516,-6,-19,-58,19,61,-38,-21,-8,
175887364516,13,25,-39,9,21,21,-1,6,
175887379451,1,22,-34,18,-40,-5,-4,6,
175887379451,-3,-12,-52,-32,-55,-12,-4,-3,
175887394688,-12,8,67,49,-8,12,-3,-22,
175887394688,-4,-27,-62,-55,31,-16,-8,0,
175887409386,-4,-8,-20,24,14,-34,33,-6,
175887409386,2,-18,0,-25,-7,-19,-14,-4,
175887417190,10,14,16,-33,-27,3,-9,10,
175887417190,-9,-2,-7,37,107,58,29,-24,
175887439538,-11,-38,8,6,-122,-41,-36,-13,
175887439538,-4,8,-14,-23,20,-12,0,-29,
175887477016,9,26,34,-21,15,-10,-36,-7,
175887477016,-3,-30,-9,-16,-46,18,52,26,
175887492301,-16,-43,-91,-44,57,-32,-22,-16,
175887492301,7,34,76,37,-17,-3,-15,-7,
175887507260,-7,-2,30,11,-24,5,4,-2,
175887507260,-8,5,92,64,33,-28,-1,-3,
175887521911,12,12,-70,-4,7,-42,15,17,
175887521911,8,28,72,33,46,65,-54,-4,
175887544658,-6,-5,-70,-76,45,12,-14,-3,
175887544658,10,23,82,8,-6,-2,21,22,
