timestamp,C1,C2,C3,C4,C5,C6,C7,C8,
3496388725,-3,-25,38,44,18,17,27,6,
3496388725,8,32,96,52,-35,-33,-5,5,
3496396206,1,-7,-51,-60,-65,-11,-20,6,
3496396206,2,12,85,48,18,-5,30,2,
3496403450,5,20,-2,32,22,12,-2,2,
3496403450,-8,-5,-35,-53,17,4,-19,-15,
3496410960,-4,-24,-63,-72,-88,-24,3,7,
3496410960,-5,8,1,6,21,16,28,3,
3496426534,-1,9,8,37,-34,14,-17,-4,
3496426534,-3,-38,-128,-86,-36,-5,-17,2,
3496440995,-13,-20,20,-64,-42,-37,-11,-7,
3496440995,3,32,95,60,-10,-37,-27,0,
3496448749,1,8,42,11,-18,24,54,-6,
3496448749,10,3,-14,92,119,15,-5,12,
3496463741,-2,-11,-85,-94,-37,0,-4,-7,
3496463741,-5,-19,-20,95,-34,7,2,2,
3496472492,-3,5,22,11,60,-3,29,-3,
3496472492,-4,-1,8,-50,-51,-7,-35,-5,
3496487997,-1,-7,-34,-29,-24,-44,2,-13,
3496487997,-1,-12,-19,-70,-23,10,27,-3,
3496501084,3,1,-9,19,18,-39,-11,1,
3496501084,4,-2,27,4,-32,9,-46,5,
3496516347,8,18,100,110,62,30,14,11,
3496516347,-5,-4,-74,-92,-54,6,29,-20,
3496532604,-3,-1,51,3,27,-26,-75,-9,
3496532604,6,-1,-76,3,-21,70,68,13,
3496540635,2,-18,16,53,-68,-55,-46,12,
3496540635,-17,-1,-38,-31,100,29,21,-10,
3496553615,-9,-40,-97,-125,54,-11,16,-19,
3496553615,11,42,109,105,-128,-37,-93,-15,
3496568729,-5,4,-6,9,-7,46,-14,-13,
3496568729,0,-31,-28,-16,-50,-43,52,-1,
3496596023,-10,-20,-59,-67,62,5,-4,10,
3496596023,-3,-15,-26,26,-80,-22,-23,-8,
3496599081,4,7,33,-31,-4,-1,8,2,
3496599081,2,0,-20,18,21,39,3,-16,
3496621035,8,-1,58,-17,-52,-70,-35,15,
3496621035,5,26,31,6,-9,20,19,11,
3496628523,4,3,6,24,57,35,16,23,
3496628523,3,-11,3,16,115,-67,17,-47,
3496646843,0,0,-25,-16,31,10,32,6,
3496646843,-9,15,42,-35,-37,-12,-7,18,
3496659936,3,-9,-61,127,-10,13,51,-6,
3496659936,4,8,39,12,57,-27,-3,-13,
3496673586,-1,20,55,-22,-53,-33,47,5,
3496673586,5,-2,-75,-11,16,28,-35,-7,
3496681190,3,16,98,17,-11,-27,30,7,
3496681190,-5,-26,-49,-30,-77,-53,-24,11,
3496718476,-5,14,-6,-68,-41,-35,-43,-1,
3496718476,2,-11,62,36,-13,11,10,10,
3496726023,1,16,-27,-22,29,7,-5,-4,
3496726023,-3,-24,-28,24,40,-4,24,1,
3496741173,-4,16,-24,-17,45,-3,-51,-18,
3496741173,3,-1,32,-6,-45,37,53,17,
3496756099,10,-3,4,2,-35,26,-102,-3,
3496756099,2,-3,-33,-91,-9,-26,13,-3,
3496778799,-17,-15,-58,-22,13,17,-16,-7,
3496778799,1,15,59,26,-95,-33,-15,-5,
3496786079,-1,15,125,106,-9,8,-23,-4,
3496786079,8,17,22,-53,-38,-36,25,11,
3496793723,10,-19,-40,-83,-111,-9,30,1,
3496793723,3,0,31,60,92,39,-24,-19,
3496838507,-6,-2,62,31,-43,1,-20,-8,
3496838507,0,6,-34,-19,25,2,-21,0,
3496845994,-5,-30,-88,-105,-60,11,32,-12,
3496845994,-5,17,91,75,-16,-10,-6,-8,
3496868476,-7,-15,-27,-42,-51,-38,-24,-6,
3496868476,-5,4,53,-34,33,10,0,0,
3496883645,2,-7,-20,-12,25,2,13,14,
3496883645,-6,-31,-90,-78,-75,-1,2,-5,
3496891163,0,-11,15,-32,46,-3,5,18,
3496891163,3,27,72,-8,-80,10,6,-5,
3496898673,3,-9,-87,-4,44,-16,23,18,
3496898673,-10,-15,-15,-41,-87,-24,9,-8,
3496905900,-1,24,44,104,85,26,-64,-18,
3496905900,4,-3,-14,5,-19,-10,-37,10,
3496921228,-7,-9,-18,36,25,8,-7,4,
3496921228,6,18,37,-1,-8,-78,-39,2,
3496928524,6,14,-27,26,-81,-19,-22,7,
3496928524,-5,-15,32,4,58,47,-9,0,
3496943506,6,23,20,31,19,-14,5,13,
3496943506,0,-7,-41,-13,25,-6,12,-3,
3496951001,-2,-6,27,-22,-12,-26,-57,-22,
3496951001,-2,-8,-22,-52,-58,12,83,12,
3496966020,-1,-4,32,65,16,-23,-95,-21,
3496966020,1,10,49,36,62,0,30,10,
3496981063,-1,-11,-63,-10,-25,54,0,6,
3496981063,0,9,36,35,29,-38,14,-8,
3496996158,-1,3,42,56,114,18,11,10,
3496996158,-6,-1,-19,-5,-5,0,-22,-12,
3497010928,5,4,-10,-2,-30,28,0,9,
3497010928,4,-13,-50,-21,36,-5,-66,6,
3497018518,2,2,11,-92,-89,-48,-23,-15,
3497018518,-1,-23,-97,47,43,6,19,2,
3497026100,13,19,127,81,-5,6,34,11,
3497026100,13,12,-35,-63,-70,0,-7,-7,
3497033606,-2,6,-11,-11,26,7,-10,-8,
3497033606,-3,-8,-39,-32,2,-17,10,1,
3497056108,2,-5,-19,-34,-94,-17,26,1,
3497056108,-22,-6,50,-25,-3,-5,20,-7,
3497070924,10,12,-92,-57,-14,4,12,2,
3497070924,-8,6,75,70,4,26,16,-9,
3497078698,5,-2,9,-4,85,21,-7,12,
3497078698,7,1,-36,34,-59,-53,-9,-10,
3497093677,-2,-11,73,18,-18,-15,-6,7,
3497093677,3,23,-11,17,42,-18,-35,-5,
3497101046,-3,-23,-80,-51,-60,-6,48,5,
3497101046,-2,31,90,-26,-9,18,-43,2,
3497108407,0,-3,-13,-8,-6,-20,-21,0,
3497108407,9,-24,-54,-51,-2,45,8,11,
3497123422,-4,-7,53,-36,-115,-56,-13,-7,
3497123422,-9,0,-22,-49,94,22,-22,-11,
3497138613,-3,2,23,-18,-26,37,22,-3,
3497138613,-5,-6,-42,104,49,9,-57,-5,
3497153570,2,8,42,-6,-32,-42,-10,7,
3497153570,1,-19,-57,8,0,-12,-12,-5,
3497161120,-2,5,55,25,-63,-29,55,-1,
3497161120,5,5,18,-12,57,18,-17,-3,
3497191106,-9,22,102,111,66,20,9,-5,
3497191106,6,21,30,-19,77,-4,43,18,
3497205919,-19,-22,-91,-99,-15,-27,2,-8,
3497205919,-2,3,23,61,39,4,-2,-1,
3497221096,12,-13,-28,22,6,-3,-20,-15,
3497221096,0,30,62,-8,-11,-21,26,5,
3497228505,1,42,115,67,-99,-60,-16,1,
3497228505,8,-1,-70,-15,63,59,20,2,
3497243463,2,-5,42,35,-26,30,21,6,
3497243463,-8,-15,-62,-78,-59,-66,3,1,
3497258642,11,10,41,86,55,-42,-10,-5,
3497258642,-11,-9,-58,-50,1,40,8,-16,
3497273671,-4,7,90,68,-1,7,-2,1,
3497273671,1,10,-5,25,20,11,5,-2,
3497288641,2,-16,-57,-91,-91,-10,-21,-14,
3497288641,3,-11,-10,20,-13,-8,-4,8,
3497303471,6,10,41,28,6,11,28,9,
3497303471,1,2,-3,-21,-40,2,-40,-7,
3497318405,14,18,-1,-53,-24,19,-37,8,
3497318405,0,-9,36,-3,-13,-53,14,3,
3497333628,-14,-12,-21,3,39,0,4,-13,
3497333628,5,-28,-47,-80,-73,23,48,1,
3497355933,14,5,-18,-46,-8,30,19,11,
3497355933,-14,-5,-38,9,-1,-18,-24,9,
3497378655,-7,-19,-41,-94,-77,3,20,-13,
3497378655,5,18,37,44,24,20,12,11,
3497393514,4,-4,20,24,52,-15,-54,-1,
3497393514,-12,2,-59,-105,-107,-33,-6,-15,
3497415931,-3,0,35,106,79,1,6,11,
3497415931,5,-1,-30,-102,-40,71,44,-4,
3497431095,3,-6,-1,-20,22,-6,36,4,
3497431095,1,9,-8,23,35,18,27,-6,
3497445974,-7,-7,-16,36,56,8,1,-9,
3497445974,-9,18,91,8,-25,-23,34,-7,
3497453466,2,10,18,28,104,111,38,13,
3497453466,5,-44,-82,-71,-98,-80,-44,-28,
3497461061,-11,3,27,-7,29,-15,-43,4,
3497461061,13,27,23,16,92,33,13,6,
3497468542,-3,-28,-15,-20,-56,2,-3,2,
3497468542,3,4,-18,-45,60,34,-13,-12,
3497490968,3,1,12,71,-117,-56,6,10,
3497490968,9,13,-2,-28,52,-10,-23,0,
3497498490,-4,3,-15,-50,46,37,35,4,
3497498490,0,-6,44,115,-29,-8,-10,-2,
3497513618,0,-6,-18,-70,-39,1,4,-2,
3497513618,-7,3,-29,4,-15,22,23,1,
3497520989,4,2,-18,9,-60,-10,1,-7,
3497520989,-6,-29,-58,-60,99,26,19,11,
3497528623,10,14,7,-23,-40,7,28,14,
3497528623,2,-1,-27,7,8,-2,-18,-4,
3497543665,-6,-11,-16,-66,-88,-19,-1,-1,
3497543665,-6,-7,-41,-36,67,4,-49,-15,
3497551012,7,5,42,74,17,0,42,10,
3497551012,1,7,32,19,-44,-13,-10,0,
3497580947,3,3,-17,-31,-7,7,21,4,
3497580947,-8,10,-5,-88,-54,43,-33,2,
3497588526,-7,-33,-120,45,-10,-53,-36,-18,
3497588526,-3,6,127,49,16,-17,11,3,
3497603470,-9,-17,-36,-94,-12,-3,18,-9,
3497603470,-5,-15,-82,-60,-84,-14,-48,-10,
3497626082,-6,17,32,9,29,14,-72,-11,
3497626082,7,-7,14,14,-66,-29,58,11,
3497633637,-6,7,15,13,127,27,-62,-1,
3497633637,4,7,-10,-21,-28,-31,45,-2,
3497648608,5,-5,-26,-5,-60,-8,-5,5,
3497648608,-19,25,22,7,-59,11,7,-13,
3497671003,8,-3,11,65,-73,-22,13,15,
3497671003,2,-19,-40,-58,-55,-12,8,-18,
3497685916,-3,-21,-29,-38,87,48,5,6,
3497685916,16,7,12,20,-5,-27,-18,8,
3497708415,0,23,-7,-49,-5,23,23,-6,
3497708415,4,-20,-21,-23,0,-2,-4,2,
3497723471,-1,17,64,37,99,39,34,-11,
3497723471,10,6,-17,-62,-49,-9,-79,7,
3497738613,4,1,43,-58,-21,2,-83,4,
3497738613,3,17,-39,-54,30,-19,4,-8,
3497768418,9,-6,7,20,103,105,44,3,
3497768418,-5,-14,20,-39,-47,-31,-28,1,
3497783583,14,2,-31,-10,27,-2,22,4,
3497783583,-9,9,-23,-45,-15,-4,3,22,
3497790945,-13,-12,39,-40,-128,-38,-36,-10,
3497790945,2,4,-27,75,91,31,44,17,
3497805935,3,-8,-116,-76,-77,-30,-13,6,
3497805935,-9,24,92,50,-60,9,-47,-5,
3497813515,7,-2,-1,-52,7,24,-13,7,
3497813515,5,31,2,36,42,-2,22,0,
3497821047,-7,-10,-2,1,-22,-22,-1,-3,
3497821047,-6,-53,-81,-64,5,-9,20,-11,
3497828685,2,36,100,7,-85,-8,-7,-12,
3497828685,-11,-13,3,21,-41,-37,-90,-18,
3497843490,12,6,28,28,16,7,68,7,
3497843490,1,14,-64,-38,-34,24,-15,17,
3497858455,-4,7,-41,20,58,10,24,12,
3497858455,15,14,113,106,127,66,27,22,
3497873590,4,-18,-73,-98,-89,-72,13,0,
3497873590,-2,-8,13,-2,-13,13,24,-7,
3497881097,-15,19,-3,-2,30,8,8,-8,
3497881097,2,-14,-1,45,-115,-19,-1,0,
3497896118,1,-14,-32,-74,-100,-73,24,0,
3497896118,-12,-5,-29,-36,50,20,-35,-14,
3497910893,-6,-5,-49,-86,-30,21,14,6,
3497910893,-4,11,61,98,38,2,30,-14,
3497933661,9,-21,15,27,-13,21,-50,10,
3497933661,18,-1,-43,-45,-10,-6,52,4,
3497941084,-25,20,25,-33,-11,10,-15,-25,
3497941084,1,-27,-57,15,1,-14,15,11,
3497956203,-6,-26,-35,-88,-28,-22,-10,-5,
3497956203,-4,-1,49,40,68,43,2,14,
3497963666,14,59,63,93,-34,-8,-26,-16,
3497963666,-3,-15,-39,-80,-16,-28,32,4,
3497970958,16,5,25,14,-1,-9,-42,2,
3497970958,-24,-23,-1,0,-6,-11,-22,5,
3497985952,3,1,-79,-31,24,13,24,0,
3497985952,-8,-28,16,-10,-42,-43,-9,26,
3497993601,1,20,52,51,96,47,-11,-25,
3497993601,-12,-7,-7,-48,-78,-50,-9,2,
3498016186,10,-4,6,46,81,-2,8,-9,
3498016186,11,9,-9,9,-37,10,16,4,
3498023683,-11,-17,-6,-46,-35,-14,-7,0,
3498023683,5,0,7,24,19,-7,27,-1,
3498038643,0,6,82,68,-17,0,-1,6,
3498038643,21,-20,-83,-9,29,40,-6,3,
3498053409,-1,31,86,36,24,22,28,3,
3498053409,-3,-6,-31,-25,-71,-58,6,-10,
3498061145,-7,-16,-14,-32,-33,33,-43,-10,
3498061145,1,3,46,42,63,12,18,6,
3498068652,17,-17,21,12,-15,7,-6,0,
3498068652,-10,13,-93,-101,-107,-41,-12,11,
3498076054,-8,-8,29,91,103,45,83,5,
3498076054,10,26,31,28,16,-18,-74,-23,
3498091141,-4,-16,-39,-28,-104,-74,14,-3,
3498091141,9,-10,-11,-25,103,63,37,16,
3498120936,-4,-2,7,-7,11,-7,-64,-17,
3498120936,-5,19,-34,-21,-83,-15,6,-6,
3498128465,-4,-10,-7,-36,-11,30,-4,20,
3498128465,0,4,-1,74,-69,-57,21,-16,
3498143580,0,18,60,-16,19,-14,-24,6,
3498143580,5,-4,18,37,-80,57,-5,-10,
3498150948,10,3,-44,17,117,21,33,20,
3498150948,-4,3,21,-18,-46,14,-12,-5,
3498165979,-5,-4,74,109,113,10,-24,-25,
3498165979,10,22,19,23,11,35,54,5,
3498173488,8,-1,-16,50,30,-45,7,12,
3498173488,-2,18,23,-63,-21,-22,11,22,
3498188645,-11,9,-28,-51,-63,5,-43,-34,
3498188645,-1,18,66,118,118,34,13,5,
3498210851,17,-13,-64,-97,-34,6,31,13,
3498210851,-19,15,32,-26,-75,-57,-76,-3,
3498225968,7,-36,-11,56,88,34,3,6,
3498225968,2,26,28,34,-11,8,-6,6,
3498248505,-6,-54,-75,-73,-50,7,-12,2,
3498248505,-4,36,73,57,68,34,16,-16,
3498255934,-13,-21,-33,-27,-18,-50,-32,0,
3498255934,-2,-41,-22,-31,31,-6,7,-19,
3498263568,3,37,10,11,-41,12,-3,-17,
3498263568,20,-9,12,92,55,4,17,16,
3498270981,-5,6,3,-80,-128,-39,-41,1,
3498270981,-8,-9,-30,14,73,74,21,-10,
3498278583,0,-2,-57,-50,-74,-8,-22,2,
3498278583,-3,40,92,51,3,-11,0,-23,
3498285910,7,6,-24,23,29,24,7,6,
3498285910,5,-19,-1,5,-10,26,18,16,
3498293437,-3,14,85,40,58,-10,-11,-9,
3498293437,-2,-7,-30,-26,-117,-5,-3,-25,
3498315954,5,-3,-1,-83,41,4,-14,3,
3498315954,-13,19,-45,-40,-31,-19,-18,3,
3498323413,3,5,46,119,92,67,30,10,
3498323413,7,-19,-48,-91,-74,-8,1,-12,
3498338723,-12,-11,-38,-36,22,15,-20,-9,
3498338723,6,19,59,72,74,-30,49,18,
3498353415,17,-2,35,28,-21,40,31,22,
3498353415,-11,-11,-67,-71,-35,3,-29,-20,
3498361122,-9,6,-9,20,-44,-21,7,-12,
3498361122,8,6,-11,4,26,-10,47,14,
3498368464,1,-57,2,16,27,12,-25,7,
3498368464,-2,55,58,29,17,2,-38,-3,
3498383500,-6,-18,-52,-127,-103,-45,-18,-17,
3498383500,8,1,-33,54,-1,14,4,4,
3498405945,13,6,52,-8,-108,-7,-9,3,
3498405945,-20,-22,-34,-111,45,27,-12,0,
3498421092,2,29,41,88,-69,-24,11,24,
3498421092,1,-14,-20,-25,5,25,12,0,
3498428516,12,5,-3,-9,8,1,44,1,
3498428516,-5,-33,16,-18,-56,-19,-43,3,
3498435956,-5,38,36,30,-25,-35,-63,1,
3498435956,13,0,18,28,32,33,-12,7,
3498443442,-9,-6,7,10,-84,-1,41,-1,
3498443442,1,0,-53,-62,52,6,-20,-11,
3498451082,5,9,-70,9,105,-46,-28,6,
3498451082,3,7,54,4,-112,38,-51,3,
3498481112,-2,-26,-34,3,10,-9,30,-2,
3498481112,7,25,25,6,26,-2,14,3,
3498488645,2,-3,-38,-22,-35,13,-3,-3,
3498488645,-4,-21,-54,-100,-22,-13,16,11,
3498510895,3,22,38,89,63,-12,-10,8,
3498510895,-6,-25,51,61,-38,16,-10,2,
3498518616,10,24,4,41,103,20,-34,-13,
3498518616,1,-12,-29,-43,-29,-21,36,-8,
3498533642,6,35,33,-4,79,50,12,21,
3498533642,-3,-8,14,127,88,34,18,4,
3498542375,-11,2,68,-14,-54,-15,34,3,
3498542375,-14,-38,-128,-128,-75,-1,-81,-29,
3498556267,-3,11,86,99,-42,-60,12,10,
3498556267,13,25,33,39,66,65,16,8,
3498563577,3,-8,-49,-60,62,33,-38,-13,
3498563577,4,12,-45,-29,22,-18,9,5,
3498578493,-8,7,19,35,22,-101,-19,-2,
3498578493,3,34,67,35,-55,27,-6,-5,
3498600926,4,1,31,71,68,1,36,13,
3498600926,3,-2,-32,-36,21,-34,-9,12,
3498608400,-7,-24,-32,-91,-110,29,29,-8,
3498608400,-4,-4,16,102,88,-30,-40,-8,
3498616214,10,22,22,-29,41,54,29,-9,
3498616214,-6,-2,-21,-9,-12,-15,36,20,
3498623486,-12,2,15,90,-89,21,-5,-13,
3498623486,8,17,55,24,41,2,5,19,
3498653422,-3,-18,-41,-45,23,36,16,18,
3498653422,7,0,-37,32,90,20,-5,-5,
3498660999,2,6,70,-45,-128,-31,-3,11,
3498660999,-3,1,-7,85,45,6,29,-13,
3498668448,2,-34,-42,-26,52,-17,-32,-15,
3498668448,-7,19,12,37,69,47,0,8,
3498683625,-2,-3,2,-17,-128,-51,1,-14,
3498683625,6,-1,36,62,82,15,24,3,
3498690985,8,10,-26,0,41,30,17,6,
3498690985,-4,-17,-7,-47,-77,-28,7,10,
3498698563,1,3,30,46,-8,-10,-4,8,
3498698563,0,6,32,-14,-10,4,-13,5,
3498720963,6,-6,-28,44,47,27,26,7,
3498720963,3,-13,-17,-38,-10,-37,-19,1,
3498735973,-4,-1,34,31,56,40,-14,2,
3498735973,-11,-6,-25,-63,-32,-14,-57,-31,
3498743481,5,-11,-12,30,2,-11,23,5,
3498743481,4,6,92,-36,-45,-19,25,11,
3498765982,0,12,-41,90,11,-39,-14,3,
3498765982,-5,-3,59,-42,67,79,2,-4,
3498781050,5,6,10,-35,-41,18,-26,-1,
3498781050,-2,-12,7,-7,-5,8,-5,-15,
3498795960,-6,-7,-28,24,-4,-26,20,-17,
3498795960,6,-2,-3,-22,19,21,-61,6,
3498803369,-3,-19,-35,-22,-13,-54,22,16,
3498803369,11,27,77,-5,-41,2,-18,13,
3498810960,2,-7,2,-46,-15,-60,1,1,
3498810960,-2,16,6,69,29,113,-9,5,
3498818578,2,18,88,10,37,-33,20,-15,
3498818578,-2,-13,-94,-64,-47,-34,-16,8,
3498833588,-11,-3,-105,-84,48,46,-40,-12,
3498833588,3,21,49,99,-60,-36,100,-14,
3498855982,-9,20,27,96,88,41,-83,-1,
3498855982,8,1,26,-40,-1,-23,59,13,
3498863606,7,17,11,76,-77,1,-30,6,
3498863606,-5,-33,-75,-87,21,-8,-6,11,
3498885989,-8,-13,-25,-33,38,39,11,-18,
3498885989,3,4,55,27,14,-26,-5,-4,
3498893653,-10,1,1,-74,10,-20,-17,-11,
3498893653,10,14,53,101,-7,47,-6,3,
3498923613,-8,-18,-24,22,52,33,26,-8,
3498923613,-9,7,17,17,30,0,26,-14,
3498931101,13,20,40,69,-9,-16,-50,19,
3498931101,9,-21,-44,-110,-73,8,21,3,
3498938400,-8,38,39,70,-12,-14,-2,4,
3498938400,-11,-18,-13,-8,14,40,14,3,
3498953444,3,-19,10,-29,-61,-10,2,-8,
3498953444,-1,25,-13,-6,18,-34,-28,-15,
3498961078,0,-16,18,10,26,-7,-22,6,
3498961078,-7,-9,-94,-65,-12,58,-3,-2,
3498968493,2,-4,1,-86,-96,15,-91,-1,
3498968493,4,10,0,98,127,26,3,-1,
3498976115,-7,-17,-61,-28,-54,-18,-17,-17,
3498976115,-14,-24,-61,-98,-102,-20,-1,13,
3498983673,-4,21,63,67,7,10,31,-2,
3498983673,10,-9,-41,-43,-1,6,-10,-10,
3498998560,5,-7,-22,-33,-40,112,72,16,
3498998560,-1,-27,21,-43,-100,-112,-85,-2,
3499013646,-7,8,94,29,-59,-12,29,-1,
3499013646,0,10,-21,66,127,21,-10,11,
3499043669,9,-5,13,60,-29,-10,-27,-5,
3499043669,2,14,2,-9,47,61,-9,-3,
3499050998,3,-20,-52,-59,46,8,3,-8,
3499050998,-15,-8,0,-22,-106,-53,22,-13,
3499073577,-2,-17,-41,-52,-30,-30,22,17,
3499073577,-5,-9,-75,-73,-64,0,-30,-9,
3499081123,12,33,112,127,125,39,39,3,
3499081123,0,27,-3,-95,-19,-12,-22,-3,
3499096175,-3,-1,-43,34,73,25,-25,6,
3499096175,9,-8,33,72,-7,13,-25,0,
3499103414,-2,-4,-10,32,-10,-49,0,-10,
3499103414,4,1,5,-51,48,-4,34,12,
3499118483,-4,-13,-72,-63,-32,-4,-17,3,
3499118483,0,12,72,70,11,-36,19,5,
3499133579,-9,-15,-7,-86,-62,-41,-7,0,
3499133579,1,16,-28,64,78,37,-16,-6,
3499148459,-3,-22,-12,-109,-68,-10,25,19,
3499148459,8,3,64,127,7,33,11,1,
3499163474,-3,6,-25,27,58,-34,-29,-9,
3499163474,3,-4,-20,-74,-52,17,24,7,
