timestamp,C1,C2,C3,C4,C5,C6,C7,C8,
6707961613,-2,12,60,103,64,16,0,-1,
6707961613,-4,-5,-19,-37,21,13,2,0,
6707968917,13,15,14,23,-22,-9,-4,4,
6707968917,2,-4,-18,-50,-7,-3,-3,-3,
6707976437,-10,2,20,37,30,15,4,-3,
6707976437,-7,-12,-20,5,-17,-25,-9,-4,
6707991546,-5,-3,2,-43,-19,-2,-2,-4,
6707991546,7,3,4,50,46,19,6,8,
6708003333,-8,-9,-46,-79,-27,-12,-8,-8,
6708003333,-2,7,44,56,26,14,8,3,
6708013828,-4,9,5,11,29,16,13,2,
6708013828,-7,1,51,42,-36,-14,-5,-4,
6708021339,23,3,-19,13,52,17,10,17,
6708021339,-4,-8,-16,-20,-29,-15,-8,-4,
6708036478,10,14,21,15,16,10,9,9,
6708036478,-18,-24,-46,-43,-10,-11,-13,-17,
6708052244,-13,-3,-4,-23,-37,-12,-7,-6,
6708052244,16,19,49,68,33,15,11,12,
6708068364,-5,-17,-36,-20,-17,-13,-10,-6,
6708068364,-6,-1,-47,-69,-25,6,0,-6,
6708074020,10,11,40,45,-50,-29,-8,4,
6708074020,-7,-6,-25,-39,-23,2,7,0,
6708089102,4,5,45,75,50,5,-3,-1,
6708089102,0,-10,-35,-48,-4,7,0,-2,
6708096669,6,6,-25,-55,-17,-9,-1,-2,
6708096669,12,24,41,36,0,-4,1,5,
6708119216,-18,1,20,-25,24,21,3,-8,
6708119216,3,-7,-3,49,19,6,-2,-1,
6708141457,-14,-11,2,15,-5,-5,-5,-8,
6708141457,-21,-13,-10,-24,17,12,-3,-11,
6708156596,9,4,3,7,7,-7,-6,-1,
6708156596,0,1,7,2,-8,6,12,8,
6708171681,-2,4,26,29,4,-14,-12,-2,
6708171681,-3,17,61,92,57,17,10,7,
6708180481,12,-8,-71,-116,-93,-10,3,4,
6708180481,13,23,63,71,44,8,2,4,
6708186533,-24,-25,-12,-27,-26,-16,-11,-14,
6708186533,-2,-4,-25,-36,8,2,0,-2,
6708201278,-12,-12,-5,-18,-15,-3,0,-8,
6708201278,7,-1,-16,-10,3,-4,0,7,
6708209022,-9,-10,4,38,14,-5,-5,-8,
6708209022,9,14,17,-37,-9,-12,0,4,
6708226157,5,16,6,-18,14,8,-5,-4,
6708226157,8,-1,1,-1,5,11,5,5,
6708246580,-13,-2,33,61,14,2,-5,-8,
6708246580,5,-8,-27,-8,-8,-9,6,8,
6708268830,-15,-22,-53,-52,-25,-10,-11,-13,
6708268830,-2,5,28,47,29,-6,-11,-4,
6708298811,-6,-10,-21,-13,0,-2,-1,-4,
6708298811,-20,-10,-38,-46,-42,-27,-12,-14,
6708321657,7,3,-32,-99,-55,-7,-1,0,
6708321657,0,-5,-19,-5,-19,-10,-2,-1,
6708331004,-6,-3,-12,-9,-3,-15,-10,-7,
6708331004,-7,2,5,9,-15,9,8,0,
6708336445,5,5,44,62,11,28,16,13,
6708336445,-12,-20,-48,-68,-37,-8,-5,-10,
6708358910,-9,-29,-72,-93,-69,-13,-9,-10,
6708358910,4,-4,-13,-10,-28,-23,-3,1,
6708366568,11,27,59,86,4,2,7,5,
6708366568,6,6,23,17,74,19,-1,3,
6708373916,-16,-30,-77,-80,-43,-18,-11,-14,
6708373916,4,8,28,73,37,-7,-4,3,
6708396295,-18,-15,-16,-46,6,6,2,-5,
6708396295,15,24,30,0,-5,5,7,7,
6708403955,-25,-15,-21,16,-18,6,2,-10,
6708403955,15,-3,-9,-10,26,2,-3,4,
6708418829,6,6,32,1,-37,-4,7,11,
6708418829,-9,4,-3,42,77,7,-13,-15,
6708426541,18,9,11,-29,-42,-23,-7,7,
6708426541,1,4,-12,-6,-3,8,4,1,
6708433826,-6,-1,-8,-8,-8,-12,-7,-7,
6708433826,-9,6,23,36,33,3,-1,-3,
6708448801,-5,-3,-24,-28,0,3,1,-3,
6708448801,25,14,31,59,-22,3,16,25,
6708456479,-12,-6,14,-8,29,14,-2,-11,
6708456479,6,10,46,57,-3,4,10,7,
6708471333,-12,-16,-84,-93,-14,-5,-6,-11,
6708471333,20,17,42,44,-19,-29,-17,0,
6708478928,1,2,11,2,37,32,11,6,
6708478928,9,1,-41,-42,-41,-13,1,4,
6708486350,-14,1,20,18,5,-1,-6,-9,
6708486350,-3,-25,-21,-31,0,1,-1,1,
6708501286,-9,-19,-18,-14,-13,-3,-1,-3,
6708501286,11,13,-10,-45,-32,-11,-3,1,
6708516358,11,9,8,16,18,7,10,10,
6708516358,5,18,56,64,32,12,2,5,
6708523960,-18,-25,-57,-52,-19,-6,-6,-11,
6708523960,-12,7,48,75,23,-7,-4,-6,
6708539072,4,-8,12,-32,10,11,3,2,
6708539072,8,-3,-36,-20,-54,-4,-1,-2,
6708546490,11,0,-39,-58,-18,-20,2,6,
6708546490,9,25,44,32,-26,20,15,10,
6708553879,-15,3,74,92,117,44,10,0,
6708553879,-2,-21,-78,-101,-47,-21,-6,-8,
6708568807,5,18,60,62,28,-7,-7,-5,
6708568807,-4,-25,-76,-105,-42,-11,0,-3,
6708576260,-6,-9,-53,-26,-69,-24,-12,-8,
6708576260,2,11,35,15,61,-4,-6,1,
6708591298,6,7,33,42,2,26,14,8,
6708591298,-19,-16,-68,-65,4,-14,-13,-17,
6708606496,26,25,43,40,-45,-13,3,11,
6708606496,-15,-22,-23,-82,-25,4,-1,-8,
6708613915,-5,2,27,52,24,-10,-10,-4,
6708613915,0,-3,-28,-20,14,20,16,6,
6708621375,4,2,-1,18,18,-12,-10,0,
6708621375,-19,-27,-46,-50,-32,-13,-12,-12,
6708636465,-8,-12,-4,-3,-15,-11,-3,-5,
6708636465,-10,-9,-16,-43,-26,-7,0,-5,
6708643835,-4,12,27,42,45,7,-3,-5,
6708643835,4,1,11,-10,2,15,11,11,
6708658823,-7,-3,13,14,8,-6,-4,-8,
6708658823,-22,-18,-26,-14,-8,-13,-15,-14,
6708666416,27,27,40,42,40,5,7,17,
6708666416,2,-4,-42,-71,-44,-5,-7,-5,
6708673956,-2,-5,-17,-1,-12,-8,-8,-7,
6708673956,5,16,57,46,47,30,17,13,
6708696507,-13,-14,-27,-22,-9,-11,-7,-8,
6708696507,-13,0,-7,-36,-23,-8,-2,-5,
6708703842,24,19,42,63,59,27,22,21,
6708703842,-3,-9,-25,4,-19,-16,-12,-11,
6708718808,-13,-7,-12,-79,-37,-8,-8,-7,
6708718808,-15,-2,33,101,81,23,0,-6,
6708726474,7,7,1,-30,-28,-11,1,5,
6708726474,23,13,7,-4,-15,-6,9,14,
6708733818,1,7,38,-21,-13,6,4,5,
6708733818,-7,8,20,48,25,-5,-13,-12,
6708756511,-10,-15,-38,-33,-15,-8,-13,-12,
6708756511,17,19,22,-4,-39,6,19,15,
6708778976,-1,-8,0,37,27,-1,2,3,
6708778976,-12,-8,-9,-20,-15,-9,-13,-12,
6708793986,-10,-4,-18,-53,-42,-7,-4,-4,
6708793986,-9,-5,3,19,41,-1,-20,-16,
6708801276,16,12,5,16,-42,2,11,11,
6708801276,-15,-21,-15,-11,-7,0,-7,-11,
6708808821,-23,-26,-49,-53,-7,-7,3,-9,
6708808821,33,36,60,58,3,7,19,24,
6708816511,-9,-10,-14,-23,-5,-10,-13,-10,
6708816511,5,10,16,43,40,6,-5,-3,
6708824061,-6,-16,-44,-49,-47,-3,-4,-6,
6708824061,9,6,-11,-12,-30,-13,2,7,
6708831396,0,-3,17,-12,3,0,0,1,
6708831396,16,19,28,18,1,-3,-1,7,
6708853713,-10,-10,-17,-25,15,9,-3,-5,
6708853713,-11,-15,-32,-9,1,1,4,-2,
6708861312,10,10,7,14,14,-20,-18,-10,
6708861312,8,8,12,-15,-43,4,21,14,
6708868833,-7,-18,-46,-39,13,3,-2,-3,
6708868833,-4,-2,2,-9,-30,-8,-2,-2,
6708883850,8,9,32,84,58,11,-3,4,
6708883850,-22,-35,-102,-121,-96,-21,-2,-10,
6708891304,9,14,58,108,70,4,0,7,
6708891304,-33,-17,25,13,29,18,-13,-24,
6708906414,-11,-7,22,22,31,1,-5,-6,
6708906414,0,5,24,29,10,6,-1,-2,
6708914057,-15,-12,-34,-38,-32,-13,2,-5,
6708914057,17,21,30,47,22,5,0,6,
6708936500,14,7,-15,-50,-31,-5,-4,2,
6708936500,-14,-9,12,48,58,3,-7,-8,
6708943948,20,18,6,-16,-58,-13,0,8,
6708943948,-27,-29,-17,-13,46,10,-8,-13,
6708959057,-10,-15,-35,-15,-40,-13,4,-1,
6708959057,6,15,20,-49,-2,-9,-17,-6,
6708966306,-4,11,39,97,41,8,-3,-7,
6708966306,3,-4,-51,-105,-55,-4,7,3,
6708973987,14,19,57,93,74,12,0,7,
6708973987,9,-6,-22,-33,-14,-11,-8,-3,
6708981367,-14,-16,-74,-108,-16,3,-6,-11,
6708981367,7,13,26,44,-32,-24,3,5,
6708988758,2,5,11,27,5,12,-2,-1,
6708988758,-11,-16,8,38,36,15,10,3,
6708996488,-4,2,28,-9,-6,1,11,5,
6708996488,0,-1,-9,17,23,6,-6,-4,
6709011498,-13,-19,-24,-34,-10,-2,1,-4,
6709011498,-4,4,-1,17,-42,-15,1,-1,
6709018768,11,6,0,-8,24,3,-3,4,
6709018768,-9,-5,0,5,-1,1,1,-2,
6709041294,18,8,-14,-89,-23,-16,-12,0,
6709041294,25,18,23,79,78,40,22,19,
6709048848,-19,-4,25,30,-10,-14,-13,-15,
6709048848,22,29,53,38,16,14,9,12,
6709071322,-28,-30,-41,-15,4,-10,-20,-26,
6709071322,2,4,-4,-39,-43,-3,15,9,
6709086401,-1,-2,7,42,40,9,0,-4,
6709086401,-1,-5,-14,-9,12,-2,6,5,
6709101390,1,6,6,29,14,7,6,3,
6709101390,-3,-21,-23,-18,-6,-18,-21,-12,
6709123955,-12,-17,-37,-55,-37,-3,2,-2,
6709123955,1,6,-5,-19,-26,-8,-7,-5,
6709131359,19,39,97,93,99,56,23,21,
6709131359,-20,-20,-20,-46,-11,-15,-18,-20,
6709153776,15,29,54,65,-19,-19,3,6,
6709153776,-9,1,37,22,19,14,1,-3,
6709176398,-13,-26,-59,-50,-12,2,6,0,
6709176398,4,14,80,101,67,1,-16,-5,
6709183808,20,23,19,25,-31,1,-5,1,
6709183808,15,12,6,1,31,28,23,17,
6709191493,-25,-16,17,63,32,6,-6,-11,
6709191493,-4,-11,-27,-66,-15,-19,-6,-1,
6709213758,-14,-10,-4,-22,-6,0,-2,-10,
6709213758,-6,10,35,60,16,4,-7,-7,
6709228821,-5,-29,-65,-70,-3,-18,-11,-5,
6709228821,16,20,23,34,-67,-16,-4,3,
6709244031,13,19,35,14,82,25,7,6,
6709244031,-21,-25,-14,6,3,-1,-8,-9,
6709251299,8,14,6,-36,-16,6,3,3,
6709251299,8,2,-3,8,-8,-14,-4,0,
6709266224,4,-9,-2,9,-16,-13,-9,-2,
6709266224,-15,-4,-2,5,45,20,9,0,
6709289003,-16,-11,-1,34,-11,-6,2,-5,
6709289003,1,7,12,-34,26,-6,-8,-4,
6709296502,27,7,-38,-35,-11,11,19,18,
6709296502,13,21,27,53,25,11,1,3,
6709303952,-12,-23,-19,-35,4,-9,-6,-5,
6709303952,-24,-20,-38,-69,-52,-12,-8,-17,
6709311460,13,23,95,97,32,11,4,11,
6709311460,3,3,-17,-7,34,30,12,5,
6709318764,1,-1,-31,-46,7,-20,-7,-2,
6709318764,3,11,16,-5,-13,-5,-10,-7,
6709341423,-2,7,46,42,6,12,-3,-1,
6709341423,-15,-28,-50,-22,-7,-7,0,-5,
6709356256,2,13,1,-21,-2,-1,-4,-6,
6709356256,-6,-25,-41,-2,20,1,3,2,
6709363826,-7,15,52,58,2,4,4,-3,
6709363826,30,16,37,55,59,14,11,23,
6709371231,-20,-19,-9,-27,-18,0,-12,-15,
6709371231,-3,-7,-22,-23,11,3,1,-4,
6709386516,14,13,-17,-12,-14,-7,8,9,
6709386516,6,-10,-46,-46,-13,-2,0,1,
6709401320,-27,-28,-18,15,5,-7,-13,-15,
6709401320,-6,-6,-37,-47,-50,-25,-11,-8,
6709408762,30,23,19,31,26,7,9,16,
6709408762,-31,-22,-20,21,20,15,4,-14,
6709423988,-25,-15,10,-31,-19,-43,-29,-22,
6709423988,22,19,34,44,29,36,21,19,
6709453891,26,8,-21,-27,-48,-4,8,14,
6709453891,-17,4,36,50,80,23,-5,-11,
6709468781,-6,-17,-50,-54,-31,-20,-13,-11,
6709468781,16,10,-1,-30,-17,-13,1,9,
6709491274,-8,-11,-44,-54,-46,-13,-18,-14,
6709491274,33,40,104,109,71,39,28,31,
6709498781,-34,-24,-10,0,-18,-1,-3,-15,
6709498781,-19,-9,-41,-74,-71,-15,-15,-18,
6709506361,14,9,34,90,72,-14,-3,11,
6709506361,-16,-23,-39,-59,-53,-19,-17,-17,
6709521269,12,-1,-50,-65,-33,-17,-3,0,
6709521269,-8,13,77,60,36,6,2,-4,
6709536230,-3,11,73,92,66,17,2,3,
6709536230,-26,-29,-38,-22,-26,-17,-12,-15,
6709543715,6,11,-11,-22,-24,-17,-12,-5,
6709543715,18,4,-18,-13,-27,-20,-3,5,
6709558795,1,6,22,-24,19,17,9,3,
6709558795,-2,-1,6,13,8,6,3,0,
6709566195,-8,-20,-68,-52,-22,-9,-8,-8,
6709566195,0,8,5,-15,0,-12,-1,0,
6709573708,-27,-14,-5,5,-16,8,0,-13,
6709573708,53,40,37,81,68,11,13,35,
6709581301,-25,-20,8,23,5,8,6,-9,
6709581301,-9,-4,-5,1,-9,-13,-9,-10,
6709596229,7,10,42,42,21,11,2,5,
6709596229,-24,-27,-64,-69,-15,25,5,-11,
6709611228,14,12,15,48,-4,-48,-21,-1,
6709611228,-11,-27,-71,-128,-84,-12,-2,-5,
6709626206,21,23,35,66,56,9,8,11,
6709626206,-11,0,33,69,38,3,-9,-9,
6709641225,-6,0,-15,-55,-17,13,-5,-8,
6709641225,-11,-8,37,86,37,-11,-2,-1,
6709656415,-3,-21,-110,-128,-85,-9,5,-1,
6709656415,36,33,79,85,35,-5,4,19,
6709663960,-16,-23,-43,-42,-17,1,-14,-17,
6709663960,-1,-1,-52,-103,-88,-31,-3,-1,
6709671472,17,26,91,113,30,14,17,20,
6709671472,-2,-5,11,8,25,19,0,-5,
6709686331,-8,-6,-24,-17,-10,-7,-2,-6,
6709686331,-4,-18,-37,-43,-64,-29,-16,-10,
6709701231,13,3,12,-11,16,1,3,7,
6709701231,-11,-17,-66,-44,2,13,-3,-14,
6709716454,12,22,64,43,30,-3,6,12,
6709716454,-10,-11,-45,-58,-47,-9,-7,-9,
6709724015,4,13,36,13,-20,-4,4,4,
6709724015,8,-3,-25,-13,18,1,0,3,
6709731453,9,5,-10,6,-60,-4,3,2,
6709731453,-11,1,57,51,79,24,5,-1,
6709754053,-17,-20,-24,-8,-8,-1,-3,-10,
6709754053,-1,-4,-26,-27,-53,-20,-7,-1,
6709776332,12,10,48,79,43,8,7,13,
6709776332,-19,-25,-39,-63,-12,1,-2,-7,
6709783822,-10,-7,-27,-33,-19,-1,-1,-5,
6709783822,11,12,60,72,39,-1,-1,6,
6709798845,-17,-21,-44,-51,-17,-1,-2,-9,
6709798845,17,2,-33,-72,-63,-27,-11,0,
6709813785,12,14,12,17,11,17,10,6,
6709813785,-16,1,58,73,77,20,-1,-3,
6709836278,3,-9,-60,-123,-70,-13,-10,-6,
6709836278,5,13,29,33,3,-5,-4,-2,
6709844009,4,14,52,55,44,10,0,2,
6709844009,-24,-20,-33,-21,-2,13,5,-10,
6709851272,43,42,68,90,86,26,24,34,
6709851272,-18,-21,-45,-50,-33,-2,-1,-8,
6709858996,16,7,9,-5,-2,-11,1,11,
6709858996,1,14,16,30,21,6,2,-1,
6709866422,-11,-15,-24,-23,-31,-10,0,-4,
6709866422,-10,-4,29,22,29,19,1,-5,
6709881476,-2,-11,-16,23,30,9,5,3,
6709881476,-2,2,-17,-62,-60,-5,1,-6,
6709888711,6,12,25,53,27,-14,-4,2,
6709888711,-6,-12,-33,-11,13,1,-7,-8,
6709903969,-10,-10,-35,-91,-63,-33,-13,-8,
6709903969,24,1,-46,-2,-15,7,12,16,
6709911469,5,21,93,93,68,15,2,4,
6709911469,-34,-10,26,28,38,18,-11,-23,
6709941357,-3,6,25,46,29,-5,-7,-3,
6709941357,5,-14,-58,-99,-59,-18,-7,0,
6709963991,-41,-25,2,-5,15,17,-3,-18,
6709963991,1,1,26,11,-43,-24,-11,-4,
6709971467,12,-2,-32,-40,-14,12,10,10,
6709971467,1,-1,-32,-68,-46,-15,-11,-9,
6709978770,7,0,-9,26,8,17,11,9,
6709978770,5,9,23,15,2,-19,-10,-1,
6709986341,3,2,-1,31,-3,-2,2,3,
6709986341,-12,-6,-25,-2,21,7,-3,-9,
6710001490,-4,-16,-75,-62,-43,-7,-9,-9,
6710001490,7,9,40,25,13,-22,-3,4,
6710016381,-9,8,71,71,32,-12,-5,-3,
6710016381,-2,6,17,-18,5,19,3,-1,
6710023957,-19,-24,-45,-35,-6,5,-6,-10,
6710023957,11,13,51,69,24,-21,-8,5,
6710031384,5,-2,-18,-55,-45,6,5,1,
6710031384,-18,-14,-29,-45,2,0,4,-4,
6710038788,0,8,33,52,11,-13,-3,0,
6710038788,7,-2,-26,-35,-20,11,8,5,
6710053781,-8,-12,-70,-42,-5,-18,-13,-10,
6710053781,1,6,79,74,13,-9,-8,-1,
6710061318,0,-2,-21,-37,6,13,0,-2,
6710061318,2,-9,-54,-65,-34,-8,0,0,
6710076342,23,31,70,65,21,-1,4,10,
6710076342,-14,-11,-24,-2,17,20,-2,-8,
6710083758,-1,6,7,-24,-22,-32,-10,-3,
6710083758,3,-1,-23,-37,-55,9,10,7,
6710091297,8,12,64,54,51,1,-3,4,
6710091297,-7,-8,-3,19,8,7,0,-5,
6710098815,-24,-22,-42,-48,-38,-12,-12,-19,
6710098815,16,18,30,17,23,2,6,13,
6710129041,-7,-17,-43,-37,-27,-7,-3,-4,
6710129041,-4,4,8,42,-4,3,6,0,
6710136332,6,-2,-8,-10,32,6,-1,7,
6710136332,-7,-9,-10,-32,-37,-15,-9,-10,
6710151275,-16,-3,1,-7,32,11,-2,-11,
6710151275,13,17,55,58,-14,7,13,15,
6710158725,-19,-14,-15,-20,-12,9,0,-13,
6710158725,14,-3,-36,2,-1,-4,1,8,
6710166402,-3,-2,12,28,-21,-19,-13,-7,
6710166402,3,12,42,39,42,37,12,8,
6710173985,11,4,-1,12,1,-2,0,5,
6710173985,7,1,-40,-60,-40,-20,2,6,
6710181330,7,10,40,76,59,19,7,7,
6710181330,-13,-4,24,2,-5,-3,-11,-12,
6710188988,1,-10,-53,-62,-49,-4,5,0,
6710188988,6,8,4,1,12,-12,-7,2,
6710196490,6,0,-24,-23,3,11,4,2,
6710196490,-6,-3,12,26,-10,-10,4,-2,
6710211408,4,10,29,47,10,13,5,2,
6710211408,-14,-16,-23,-32,-3,-1,-6,-11,
6710218757,-5,0,6,-5,-25,-10,-3,-5,
6710218757,-1,2,3,-30,-6,-11,-12,-8,
6710233755,-2,-2,18,35,-3,-6,-8,-4,
6710233755,0,0,19,53,78,24,8,4,
6710241397,-9,-6,-32,-36,-20,-10,-8,-10,
6710241397,-8,-12,-13,4,-23,-9,1,-1,
6710248809,14,10,9,-33,-11,-7,-1,6,
6710248809,7,-10,-51,-27,-2,-5,-4,-1,
6710256197,2,5,14,-5,-24,-5,-3,0,
6710256197,-4,2,15,17,32,12,-1,-4,
6710279070,-17,-18,-33,-14,-8,-5,-5,-9,
6710279070,8,20,61,45,27,11,4,6,
6710286285,-1,-1,38,70,56,17,9,5,
6710286285,3,0,-24,-16,-7,-15,-11,-4,
6710316286,8,2,-30,-42,-26,2,14,11,
6710316286,-6,-5,-17,-38,-44,1,-3,-4,
6710323886,-1,7,-3,-3,8,-5,-2,1,
6710323886,-4,-7,9,-9,-7,-3,-1,0,
6710331333,-8,-4,-45,-17,11,-4,-12,-12,
6710331333,14,16,39,41,-17,-18,-2,6,
6710338912,-4,-12,23,26,47,40,16,8,
6710338912,1,-4,-32,-47,-32,-15,-7,-4,
6710346482,-14,-7,-5,-26,-9,-13,-15,-15,
6710346482,-25,-11,-17,9,14,-1,-3,-14,
6710361384,12,3,-16,-35,-84,-32,-12,0,
6710361384,24,22,37,21,29,20,18,19,
6710383940,8,4,-2,-25,-18,-19,-5,1,
6710383940,29,10,-25,-42,-32,-3,2,11,
6710391213,-19,-16,-17,-22,12,-7,-7,-11,
6710391213,-7,13,45,59,7,-2,-1,-6,
6710398733,6,-6,18,39,45,23,13,12,
6710398733,-7,-16,-49,-54,-43,-20,-9,-5,
6710406398,-7,5,10,-5,-11,-2,-4,-5,
6710406398,-2,4,20,37,41,18,2,2,
6710413945,11,3,-1,10,-2,-7,0,6,
6710413945,-5,1,-13,-3,-6,10,-1,-7,
6710421250,8,-5,17,21,37,-2,3,13,
6710421250,-13,-18,-51,-38,-32,-9,-9,-12,
6710443957,-7,9,58,79,15,-16,-12,-9,
6710443957,6,-2,-6,-55,12,9,2,5,
6710451308,16,11,-11,-6,-67,1,16,11,
6710451308,-13,-15,-11,14,-23,-23,-18,-14,
6710458731,-6,-2,-36,-74,24,11,1,-4,
6710458731,19,20,57,109,41,5,8,13,
6710473850,-13,-18,-35,-21,12,-9,-12,-10,
6710473850,5,9,-8,-25,-16,7,3,0,
6710488902,-10,-2,68,91,56,25,10,4,
6710488902,-7,-10,-24,-59,-39,-3,-3,-6,
6710503925,18,15,3,-17,-18,8,10,10,
6710503925,-8,-3,-24,-19,5,-9,-3,-5,
6710511431,4,10,44,38,-37,5,-3,-4,
6710511431,0,-11,-22,-6,58,14,6,5,
6710519010,-4,-4,8,-3,-27,-15,-8,-6,
6710519010,-7,-7,9,24,41,7,-4,-5,
6710526275,-15,-6,-43,-69,-51,-5,3,-9,
6710526275,20,12,7,43,14,-16,-4,10,
6710533828,-2,0,3,2,1,7,5,1,
6710533828,-5,-6,31,15,-22,15,1,-2,
6710541471,-8,-16,-81,-82,11,0,-13,-13,
6710541471,35,34,79,96,26,-3,15,26,
6710563893,-43,-23,-6,7,-2,8,-10,-24,
6710563893,0,-1,-16,-55,-35,-24,-14,-5,
6710578998,17,9,36,75,81,30,13,14,
6710578998,2,-8,-46,-77,-69,-14,5,1,
6710594065,-16,-11,-69,-59,-27,-21,-21,-21,
6710594065,14,27,92,117,34,-3,18,17,
6710601259,-9,-26,-27,-40,8,20,2,-7,
6710601259,-5,-15,-65,-65,-55,-9,-7,-5,
6710616397,-6,0,34,27,-21,-24,-8,-4,
6710616397,-8,10,42,18,45,34,4,-5,
6710638904,-4,-12,-33,-68,-67,-26,-10,-6,
6710638904,0,-5,-12,-25,7,9,2,1,
6710646251,27,14,-24,-17,3,3,14,18,
6710646251,-4,-1,-9,-6,-24,-32,-9,1,
6710661481,-19,3,45,45,79,36,0,-6,
6710661481,1,9,16,28,12,5,2,2,
6710668933,10,-6,-50,-74,-69,-13,-2,4,
6710668933,-9,-9,25,41,16,3,7,3,
6710676441,-16,1,16,20,14,9,-8,-11,
6710676441,-9,-2,15,25,1,-14,-3,-3,
6710683769,6,-6,-42,-64,-25,8,4,2,
6710683769,14,11,-15,11,28,-6,4,6,
6710691521,4,-3,16,26,-17,-14,-1,0,
6710691521,-14,-3,41,2,59,33,2,-9,
6710698867,25,22,27,64,40,6,6,11,
6710698867,-3,-22,-54,-80,-38,-5,-6,-3,
6710706462,4,6,-39,-66,-53,-28,-9,-7,
6710706462,5,-7,13,36,40,11,-2,2,
6710721291,-4,0,26,17,11,10,9,1,
6710721291,-26,-11,-14,-11,-27,-4,-9,-17,
6710736267,33,22,23,41,9,1,10,20,
6710736267,3,-8,-42,-86,-119,-24,-8,-1,
6710751267,-10,1,28,41,44,7,-2,-1,
6710751267,6,9,23,26,46,31,11,5,
6710759047,5,-5,-56,-75,-83,-15,-3,-1,
6710759047,-15,-11,19,53,26,-15,-7,-8,
