timestamp,C1,C2,C3,C4,C5,C6,C7,C8,
23410265849,40,110,112,103,2,-35,38,45,
23410265849,-52,91,-5,41,108,56,-21,-34,
23410273185,21,-83,-93,-92,-52,0,-4,-5,
23410273185,-11,90,98,-109,-86,-73,-9,1,
23410280841,-5,65,46,47,85,32,-13,-20,
23410280841,-3,-84,-69,-104,-128,-114,-14,4,
23410303469,21,105,123,77,127,37,-7,7,
23410303469,-35,33,43,83,119,106,17,-6,
23410312170,-5,-93,-95,-128,-96,-7,-12,-14,
23410312170,13,7,71,-61,-73,-65,10,8,
23410327851,0,-5,51,69,81,45,-1,-5,
23410327851,21,-114,-74,8,-2,28,0,4,
23410340733,54,89,60,-34,-45,-23,43,36,
23410340733,-38,59,59,107,119,60,-20,-9,
23410363215,-43,-46,-128,-128,-5,-82,-10,-28,
23410363215,-16,-28,-44,-27,-38,-10,-11,7,
23410370994,-27,-127,-128,-100,-61,-1,-21,-8,
23410370994,42,44,40,-23,-36,-27,4,12,
23410393408,2,-79,31,-16,13,19,-7,-12,
23410393408,4,61,58,17,-22,-18,25,20,
23410415820,-6,-80,-93,-128,-125,-26,26,18,
23410415820,30,-49,-29,-32,101,24,-22,-8,
23410423169,2,116,125,84,5,-3,54,37,
23410423169,-47,34,33,93,36,39,-28,-47,
23410441173,-24,-43,-94,-106,-50,-65,-27,-15,
23410441173,28,-9,41,7,69,17,12,26,
23410460893,-10,20,38,127,127,113,-10,-16,
23410460893,19,-93,-128,-128,-128,-46,-5,-11,
23410475767,-4,127,127,72,-69,-27,34,41,
23410475767,-24,-10,-97,101,90,23,-16,-9,
23410484622,-7,-62,-77,35,-89,-52,-3,-17,
23410484622,35,68,72,50,127,-2,14,25,
23410507159,-2,61,25,-29,102,54,7,-5,
23410507159,4,-3,-97,-61,-66,52,6,-6,
23410520832,-3,68,69,67,56,54,4,18,
23410520832,5,-128,-96,-92,-4,39,10,4,
23410536171,-7,95,127,-43,-66,-34,-1,-2,
23410536171,-5,6,-26,16,-70,-16,-20,-12,
23410543362,0,-39,-93,-128,-128,-63,-13,-16,
23410543362,-23,32,-54,94,110,53,-1,-3,
23410552273,-16,105,127,100,-49,-32,25,39,
23410552273,-18,-69,-105,-59,-128,-90,-25,-18,
23410565968,-8,-60,-11,34,69,-49,-46,-46,
23410565968,23,76,100,74,127,121,34,21,
23410573265,5,-108,-85,-70,-121,-82,-35,-15,
23410573265,37,122,109,-53,-104,-1,57,40,
23410588395,-77,106,71,119,73,11,-19,-15,
23410588395,-18,-71,-112,58,46,-12,-11,-17,
23410596146,-45,-108,-128,-75,-66,-76,-32,-28,
23410596146,22,57,98,111,125,62,4,3,
23410626056,18,22,54,-82,65,-39,16,27,
23410626056,-29,75,89,98,88,28,-14,-15,
23410633371,-8,-98,-98,-111,-98,-66,-4,-17,
23410633371,9,60,17,-71,-56,-58,-7,19,
23410640696,-1,67,36,91,54,39,-10,-14,
23410640696,6,11,94,-4,63,51,20,-3,
23410648473,0,43,-33,-53,-50,-18,18,19,
23410648473,-3,-112,-113,-40,62,49,11,2,
23410670871,-39,-10,57,46,-84,-89,-41,-21,
23410670871,-6,39,15,-74,-31,-42,-18,-6,
23410678236,19,-33,17,-89,-61,-45,13,23,
23410678236,0,-3,-47,101,67,47,7,0,
23410685858,14,-48,-82,-111,-29,-15,-6,7,
23410685858,9,-7,25,16,-27,-5,-1,3,
23410700782,-8,68,76,59,61,27,20,15,
23410700782,-20,-81,-112,-128,-128,-72,-55,-46,
23410708306,21,111,69,-52,24,-36,36,48,
23410708306,-20,122,127,127,127,41,-2,-10,
23410715660,-22,-10,-59,-83,-30,13,-6,-29,
23410715660,28,-81,-53,82,94,10,19,30,
23410730803,-33,-4,-41,-38,85,0,-54,-45,
23410730803,15,-14,-48,-47,-128,-48,11,13,
23410738314,5,-64,-115,-123,-113,-113,-23,-2,
23410738314,13,70,47,18,91,81,45,19,
23410745689,0,3,93,112,75,94,10,0,
23410745689,2,-24,-32,-59,-57,-17,-10,-9,
23410760990,3,48,66,125,127,84,4,0,
23410760990,-22,-88,-115,31,-23,-20,-11,-11,
23410768315,-7,10,-26,-24,-100,-66,-8,-9,
23410768315,19,97,49,-96,-59,-25,-11,3,
23410805932,-17,32,24,-57,-37,-63,-5,-3,
23410805932,-20,49,48,89,107,39,3,-3,
23410813373,-20,-109,-128,-128,-128,-27,-43,-41,
23410813373,24,-16,-12,-75,-60,-58,4,18,
23410820973,34,61,48,117,62,33,23,34,
23410820973,-11,-53,-78,-78,86,-18,-5,-6,
23410865859,10,-13,7,-32,88,76,36,17,
23410865859,-20,81,73,1,120,93,-1,-19,
23410880932,-7,-77,-16,9,-104,-36,-20,-26,
23410880932,21,18,25,121,8,-11,1,8,
23410895966,-45,15,-66,62,3,-36,-52,-66,
23410895966,25,-76,-35,-59,-47,-53,3,33,
23410903246,9,-14,-13,-32,-43,22,-1,-1,
23410903246,3,-15,-48,14,-36,29,49,18,
23410918410,-7,20,1,6,75,16,-13,-11,
23410918410,-29,40,12,55,-48,-52,-20,-21,
23410948372,9,25,83,-47,-69,-42,21,23,
23410948372,-4,52,-13,-5,-123,-56,-17,-11,
23410955729,29,-49,-13,-82,-49,-41,10,21,
23410955729,-35,53,127,127,127,117,-6,-25,
23410970875,-3,26,-45,-72,-95,-40,-15,-4,
23410970875,-32,-2,-57,-97,24,2,-19,-32,
23410993253,5,-10,-55,-58,-82,-29,-7,2,
23410993253,21,-37,49,-13,-70,-47,10,9,
23411008161,-10,96,60,-89,23,-1,-19,-24,
23411008161,-8,-65,-80,-52,-51,-35,-13,0,
23411023151,-19,-11,3,47,19,-45,-19,-4,
23411023151,-18,10,-79,-128,-128,-10,3,-7,
23411030681,-13,-81,-98,-88,-25,3,-20,-17,
23411030681,7,20,114,-76,-81,-113,-13,8,
23411060857,20,13,-17,127,127,93,20,18,
23411060857,9,-48,-43,-97,94,10,-20,-1,
23411075664,42,-33,37,0,-9,-1,5,16,
23411075664,24,50,84,-42,-92,-71,43,38,
23411083389,-13,127,87,127,127,-2,-9,-3,
23411083389,-32,-107,-128,-128,-105,-108,-64,-56,
23411090650,-16,-66,-85,5,81,65,23,-7,
23411090650,12,-4,-75,-30,-40,26,-1,-5,
23411098394,-7,-27,49,33,-59,6,11,11,
23411098394,14,7,26,45,-84,-55,-1,13,
23411113377,5,-71,-53,-108,-128,-60,-5,-4,
23411113377,32,107,127,127,127,68,18,7,
23411120761,-17,-46,-85,-108,-67,-31,-4,9,
23411120761,5,-35,-31,-79,-73,-94,-13,1,
23411128146,14,-92,-104,-18,-128,-100,-30,-17,
23411128146,31,-49,-51,-75,-104,-47,17,35,
23411143533,-5,56,35,116,124,37,26,15,
23411143533,-32,-38,-99,-5,39,57,-24,-26,
23411150841,-7,-31,-10,-118,-89,-22,-17,-19,
23411150841,8,120,102,112,21,46,7,16,
23411173311,-22,-128,-104,11,1,-31,-34,-39,
23411173311,-6,-11,-22,-73,-89,-54,-6,-14,
23411180841,3,-32,-51,126,127,81,11,-6,
23411180841,2,-36,85,-97,-128,-66,8,14,
23411188331,36,31,11,6,-16,4,15,37,
23411188331,1,76,127,127,127,69,15,8,
23411195816,-7,1,24,34,-119,-34,-36,-38,
23411195816,22,-25,17,-63,-62,-56,-5,15,
23411233286,-9,94,17,61,71,61,36,9,
23411233286,-51,-85,-96,-98,52,9,-47,-48,
23411240705,12,-50,-110,-128,-76,-73,8,37,
23411240705,-21,6,70,82,-57,-6,-6,-21,
23411270771,-7,-46,-6,96,93,68,7,1,
23411270771,-7,12,-9,7,-27,5,3,-3,
23411285651,-4,-40,-80,-15,-39,11,-5,-7,
23411285651,-5,-49,-121,-108,-103,-2,-1,-15,
23411323162,-4,127,127,28,25,-13,15,3,
23411323162,-37,14,-21,127,127,120,6,-12,
23411345820,9,-128,-128,-128,-108,-4,-13,-8,
23411345820,-9,107,127,51,57,-4,-16,-12,
23411360901,-8,29,41,13,-34,-26,-13,-7,
23411360901,-3,-79,-92,-88,-127,-119,-14,-10,
23411383359,2,-29,61,-23,-61,-16,-8,-1,
23411383359,16,60,61,-18,98,46,14,16,
23411405895,-31,70,1,65,127,111,15,-19,
23411405895,-19,76,85,127,12,-19,-15,-21,
23411421015,-18,120,127,-71,72,-5,-16,-23,
23411421015,18,29,2,30,36,19,17,25,
23411435695,4,66,127,127,127,-9,-33,-17,
23411435695,-14,5,-61,35,-62,-31,-6,-15,
23411450853,-9,-62,-128,-128,-120,-27,23,30,
23411450853,-19,-43,62,-44,-17,25,10,-10,
23411465841,11,110,127,127,127,85,14,8,
23411465841,-56,23,-11,11,-32,-7,-86,-88,
23411473117,3,-14,-52,-38,52,74,5,-7,
23411473117,5,61,89,-18,-86,-57,16,51,
23411488167,-59,59,-71,-42,127,22,-30,-50,
23411488167,-24,8,-77,-1,-120,-92,-34,-41,
23411495834,-19,-34,-69,-14,-30,-36,-15,-6,
23411495834,9,-7,10,-94,55,78,8,-9,
23411510860,1,15,-55,-58,-31,-43,-12,-16,
23411510860,50,-59,-87,-89,22,36,23,34,
23411518183,8,77,85,90,5,-57,-15,18,
23411518183,-18,-9,-85,-86,13,-7,28,0,
23411525635,-15,-23,56,127,43,-12,-32,-22,
23411525635,-58,-5,38,-37,-2,0,-31,-49,
23411540836,19,13,-42,21,-57,-4,3,10,
23411540836,37,-52,-13,21,46,66,32,23,
23411548385,-13,51,15,-111,-128,-66,-46,-23,
23411548385,15,95,26,83,56,-2,30,20,
23411616000,-33,-112,-115,-68,-114,-17,15,-4,
23411616000,1,-6,127,26,-63,-52,-22,-14,
23411623173,15,15,101,127,126,28,9,30,
23411623173,40,-31,117,127,90,98,30,9,
23411638246,0,109,93,27,-119,-22,15,16,
23411638246,-35,-1,-128,-114,-7,-46,-25,-20,
23411645799,-12,48,60,90,127,23,-11,-16,
23411645799,33,-63,-18,-18,-83,23,10,4,
23411653193,3,45,0,17,112,35,-3,12,
23411653193,-21,53,-128,-92,29,7,17,2,
23411675775,4,32,127,-69,-111,-3,27,22,
23411675775,-30,22,59,70,48,30,-16,-36,
23411683431,-12,-41,-122,-128,-128,-122,-35,-20,
23411683431,-8,43,127,79,-73,-77,-33,-18,
23411690751,-7,-65,-127,-101,63,7,-2,-10,
23411690751,44,-10,77,87,119,101,49,39,
23411705731,14,36,86,127,127,112,11,5,
23411705731,13,60,85,127,-41,60,33,21,
23411728344,-61,1,-51,-107,-128,-60,-29,-35,
23411728344,-10,-83,-98,-92,-85,-63,-18,-16,
23411735845,-12,74,80,7,-82,-42,13,13,
23411735845,42,58,19,43,99,25,-6,27,
23411743392,23,5,39,-18,-33,-23,3,-9,
23411743392,6,-27,62,-7,72,50,21,11,
23411750670,-27,114,127,125,100,32,2,5,
23411750670,-15,-81,-113,-45,-41,-57,-30,-25,
23411758238,33,-128,-105,-118,-128,-56,-6,16,
23411758238,13,99,58,44,54,50,1,8,
23411765897,9,74,30,66,75,80,29,14,
23411765897,-12,41,-47,-79,-66,-23,-15,-21,
23411781036,-6,-19,-1,110,-32,31,38,19,
23411781036,-37,-78,-28,-24,18,-3,-16,-22,
23411795614,-34,127,91,73,76,1,-9,-9,
23411795614,-23,-30,-128,-88,71,-22,-51,-50,
23411810853,-19,-18,73,127,68,81,27,-17,
23411810853,25,33,48,35,-64,-11,12,24,
23411818378,8,-91,-128,-128,-116,-47,-28,-13,
23411818378,4,-40,11,91,-42,-48,16,25,
23411833196,0,14,46,38,41,-31,-44,-22,
23411833196,15,17,110,-23,-55,-11,52,49,
23411840649,14,72,-21,46,127,113,31,19,
23411840649,-43,-18,-109,-39,-17,-5,-32,-40,
23411848364,-26,72,87,-70,71,24,20,0,
23411848364,38,-94,-71,40,-11,-6,-3,12,
23411856037,-14,82,123,-38,-63,-32,34,11,
23411856037,-27,84,-14,127,127,35,-27,-34,
23411863364,-27,-118,-102,-106,-117,-51,-14,-9,
23411863364,41,-45,-74,-81,1,-32,4,8,
23411878180,36,71,69,107,94,101,58,47,
23411878180,-42,-12,-51,-81,-6,11,-25,-24,
23411885746,-39,10,-43,-12,-32,31,-18,-39,
23411885746,-28,-56,-125,-128,-128,-103,-40,-27,
23411893362,63,-128,-94,12,-128,-70,7,40,
23411893362,11,122,110,-67,10,-3,30,25,
23411900633,7,46,47,127,80,9,-18,-5,
23411900633,-41,-43,-89,50,24,85,9,-22,
23411915987,-26,-42,-65,-111,-46,-41,-45,-31,
23411915987,12,-6,57,127,127,25,14,22,
23411923141,2,-25,12,51,-77,-38,-26,-25,
23411923141,1,2,104,-69,-103,-12,33,9,
23411938251,9,127,81,106,127,117,33,35,
23411938251,-44,-63,-128,-22,-18,12,-40,-56,
23411945940,29,23,-39,11,-55,-17,6,18,
23411945940,16,-7,-9,-79,-92,-31,-4,9,
23411960883,42,36,15,-128,-62,21,61,56,
23411960883,-15,-30,-92,-48,-13,-51,12,14,
23411968324,-3,8,30,127,122,51,-11,-20,
23411968324,-58,24,38,22,24,-22,-40,-44,
23411983341,-9,-105,-93,-107,-114,-128,-54,-30,
23411983341,25,17,127,127,122,48,21,30,
23411990731,-9,-58,-128,-128,-16,24,8,-3,
23411990731,37,8,32,127,65,5,2,15,
23412005836,-15,-2,77,64,112,84,6,-16,
23412005836,-10,38,41,-63,-93,-49,-12,-7,
23412013371,-30,59,38,-60,-91,-59,-38,-35,
23412013371,29,-33,5,122,104,42,8,7,
23412020821,10,-60,-54,-50,59,26,-6,0,
23412020821,-3,63,66,21,-61,21,35,25,
23412035927,10,-37,-128,43,-13,-4,-5,9,
23412035927,-33,15,75,-79,-128,-26,-7,-17,
23412043061,-9,49,-10,-36,-51,-61,-14,-12,
23412043061,2,-12,-49,63,31,33,3,1,
23412080900,1,-48,-39,-86,-84,-23,-4,-13,
23412080900,13,-3,31,93,62,39,6,8,
23412088358,-27,18,25,15,3,2,-27,-11,
23412088358,5,5,-88,-128,-41,-10,27,15,
23412095960,-19,57,118,127,124,-21,-22,-12,
23412095960,29,-79,-128,-128,-128,-82,-10,8,
23412110851,23,11,127,-24,38,-33,22,21,
23412110851,-11,65,29,92,51,89,0,2,
23412125704,-42,-76,-128,-128,83,30,-15,-36,
23412125704,-15,-21,-51,-24,-25,31,-14,-24,
23412140865,1,-43,-105,-81,-111,-105,-20,16,
23412140865,14,-55,-56,2,49,36,-1,-7,
23412170828,1,26,65,53,66,97,13,-8,
23412170828,-4,13,-29,-73,-51,-40,-7,2,
23412193150,-21,80,-15,39,35,19,14,8,
23412193150,-23,38,8,-16,-45,-23,-45,-57,
23412223138,5,-61,6,81,-97,-18,1,4,
23412223138,6,53,105,99,82,-63,-3,16,
23412230657,6,-25,-30,59,-66,18,-5,-7,
23412230657,8,-76,-78,-110,-75,-69,-1,17,
23412238331,0,83,49,-13,-38,21,18,-11,
23412238331,-3,60,81,80,28,92,20,8,
23412253083,0,-63,-39,-48,-80,-32,-7,7,
23412253083,21,-7,67,-42,-41,-3,-5,8,
23412268329,-13,15,-32,-119,-97,-2,-11,-9,
23412268329,7,-18,-28,-128,-76,-87,-5,-12,
23412275681,0,82,100,119,105,100,30,9,
23412275681,3,-99,-102,32,-50,-14,-15,-11,
23412283341,27,54,25,-87,-35,-66,-7,17,
23412283341,-51,99,53,58,10,66,30,9,
23412298224,-16,93,94,-84,34,39,-16,-37,
23412298224,1,-15,-100,-33,-128,-128,-17,30,
23412305677,8,-76,-27,-117,-82,-65,1,7,
23412305677,19,70,104,127,127,68,34,24,
23412320819,9,-78,62,-72,92,3,23,5,
23412320819,90,-128,-8,85,86,127,33,32,
23412343196,6,71,108,-98,-128,-107,-9,17,
23412343196,-25,4,-60,67,-81,-39,-18,-13,
23412358130,-26,127,111,-7,-46,-17,-26,-20,
23412358130,-30,17,21,52,41,63,-6,-27,
23412365784,39,-122,-89,-116,-94,-31,22,30,
23412365784,23,88,80,-23,40,38,14,27,
23412373128,-8,48,26,124,127,89,22,-7,
23412373128,23,-53,-78,-29,-63,-21,-7,-11,
23412380808,-7,-43,-68,-5,-45,-77,11,25,
23412380808,-48,-33,68,59,88,68,-31,-35,
23412388421,-13,-10,58,113,-17,-12,9,-13,
23412388421,28,123,127,-57,-3,-63,-34,4,
23412395976,37,107,73,124,127,127,101,60,
23412395976,-59,-29,-105,-38,-110,7,-41,-53,
23412403106,-11,55,5,-59,-71,-102,-41,-16,
23412403106,-8,84,-6,43,64,49,31,22,
23412418358,-30,-21,4,-9,66,70,-48,-52,
23412418358,-20,-76,-90,71,54,1,0,-7,
23412425766,17,-93,-72,-56,-55,-33,-9,-11,
23412425766,30,100,90,56,77,39,22,12,
23412433466,38,-8,2,-27,-87,-35,23,57,
23412433466,-7,-65,-66,30,-41,-32,-30,2,
23412440824,11,-21,-18,-46,-43,-71,-2,-12,
23412440824,-11,107,127,117,84,86,17,10,
23412455833,-38,36,-94,-108,-81,-14,-52,-60,
23412455833,-29,-72,54,-53,-102,-38,5,-15,
23412470781,-15,65,125,120,4,15,-18,-7,
23412470781,54,-5,-102,-62,-9,27,35,44,
23412485715,-25,-77,-107,-101,-118,-128,-38,6,
23412485715,-33,43,-11,-69,23,4,-5,-29,
23412500675,27,-24,23,127,127,127,31,8,
23412500675,16,38,71,-128,9,0,-4,-4,
23412508120,16,4,-32,-83,83,46,31,38,
23412508120,-45,77,67,19,19,-24,-31,-29,
23412515747,6,-9,-34,12,26,28,9,9,
23412515747,-1,-74,-7,-105,-128,-128,-39,-29,
23412530830,-38,85,127,127,127,111,-11,-32,
23412530830,-22,-69,-128,-79,-72,49,-15,-15,
23412553174,-11,-16,-122,-115,-93,-26,-6,3,
23412553174,8,-97,-64,-115,-128,-41,6,3,
23412575648,3,91,79,127,-15,-34,5,10,
23412575648,59,-47,-101,-128,-84,-42,4,28,
23412583870,13,69,116,32,-94,-91,-16,14,
23412583870,-9,85,122,84,71,75,19,10,
23412590676,-43,-119,-123,-45,67,16,-28,-48,
23412590676,-23,-95,-90,-68,-34,69,5,-19,
23412598460,13,57,48,62,103,55,-3,-13,
23412598460,-14,0,-39,-62,-91,-60,5,13,
23412620830,-5,-110,-125,-128,-128,-99,-20,-12,
23412620830,30,18,59,39,18,-55,17,29,
23412643254,13,127,127,127,127,107,22,27,
23412643254,-13,-90,-128,28,9,27,-25,-8,
23412650798,18,-128,-128,-128,-128,-128,-5,20,
23412650798,-14,107,117,-125,-57,-69,-23,-13,
23412658447,-41,62,96,97,17,23,-12,-34,
23412658447,-10,-54,-55,16,93,71,-6,-26,
23412695912,16,12,-15,5,35,29,35,13,
23412695912,9,-16,8,-102,-111,-87,11,29,
23412710796,-4,-44,-100,-128,-88,12,-13,-15,
23412710796,-5,-75,-84,-58,-4,13,2,-11,
23412718116,33,-34,-15,63,-128,-24,32,21,
23412718116,-11,117,101,-110,53,-16,11,11,
23412725734,-22,-24,-84,121,124,90,-8,-26,
23412725734,3,6,-52,-98,-128,-99,-29,3,
23412755792,-2,-21,18,-128,28,31,25,-1,
23412755792,-17,81,127,127,-76,-48,-28,-20,
23412763160,-12,28,10,-72,-44,-20,-22,-10,
23412763160,10,-118,-128,-128,-77,-40,1,6,
23412778327,16,-12,-54,-11,-128,-38,11,20,
23412778327,-9,71,127,91,125,34,21,6,
23412793165,-4,23,19,120,35,71,22,4,
23412793165,-7,35,111,99,37,-6,4,-4,
23412800844,-19,26,-45,-128,-98,-69,-43,-40,
23412800844,51,-61,-114,-22,-26,15,32,53,
23412808160,-28,19,-62,-128,-63,-39,-4,-3,
23412808160,-10,46,62,67,-47,-11,-17,-19,
23412815736,-13,-63,-67,-19,81,44,-13,-20,
23412815736,9,15,8,-68,-128,-19,3,-5,
23412823215,-37,31,85,121,127,63,-17,-43,
23412823215,-11,-93,-119,-108,-14,44,24,21,
23412830661,-7,-2,63,-37,-56,-34,-4,10,
23412830661,7,52,80,97,98,60,6,1,
23412838474,7,-27,-42,-77,-88,-40,-17,-10,
23412838474,31,36,-8,-35,-65,-16,13,14,
23412845742,1,63,59,72,58,56,36,36,
23412845742,-24,-16,-101,-128,-65,-36,-22,-27,
23412875696,12,-31,-25,-60,-61,-6,-2,-7,
23412875696,-18,22,58,43,81,-53,-3,-5,
23412890903,54,-105,-128,-45,-47,4,25,40,
23412890903,6,-18,-5,-49,-62,-71,-8,12,
23412913161,-18,-65,-69,-86,-81,-38,6,-14,
23412913161,12,65,127,127,127,78,3,-5,
23412928180,4,11,5,33,-27,-17,-6,0,
23412928180,27,-57,-87,-76,-72,-45,12,23,
23412935933,-15,-80,-72,-125,-49,-12,-4,-15,
23412935933,7,95,105,-1,-26,-49,-15,-7,
23412943208,14,-24,-63,-120,-128,-18,-7,15,
23412943208,9,-91,-60,-83,16,-18,-5,8,
23412950728,-18,-38,-128,-128,-86,-55,-16,-14,
23412950728,-11,-69,-48,24,-54,-71,-30,-27,
23412958155,44,-15,57,104,127,82,31,34,
23412958155,4,59,21,32,-10,-10,5,7,
23412973137,-17,19,36,113,127,70,5,-9,
23412973137,-27,-12,-18,-70,-46,4,-14,-24,
23412988338,3,25,-36,-112,-63,-86,-17,-4,
23412988338,12,-12,-23,49,-17,-15,-3,3,
23413003189,0,-14,-51,-37,-54,-40,-15,-4,
23413003189,10,-68,57,44,118,47,16,-3,
23413018340,-23,34,21,127,74,41,-4,-10,
23413018340,-22,-12,-114,-107,-128,-81,-17,-21,
23413040864,12,-14,94,45,76,47,14,10,
23413040864,-2,44,37,24,-27,23,3,-6,
23413070712,1,32,-39,-35,84,27,5,0,
23413070712,-2,-67,2,31,-110,-35,-6,-3,
