timestamp,C1,C2,C3,C4,C5,C6,C7,C8,
37133971375,6,-4,-9,2,4,4,2,5,
37133971375,-12,-21,-35,-6,-26,-9,-6,-7,
37133979085,10,10,10,7,14,4,5,8,
37133979085,3,10,19,7,-6,-1,2,1,
37133986874,-16,-13,0,11,-2,-8,-12,-12,
37133986874,-4,-12,-53,-63,-31,-6,-1,-1,
37133993862,13,16,29,12,-2,10,9,7,
37133993862,11,20,39,56,54,13,2,5,
37134008979,-13,-15,-16,-6,-15,-11,-7,-8,
37134008979,-5,-15,-35,-22,-19,-8,0,-1,
37134016332,9,21,45,60,31,2,1,4,
37134016332,-14,-17,-17,-43,-13,-5,-11,-13,
37134031292,12,11,6,-3,10,15,11,8,
37134031292,2,6,16,-3,13,5,2,4,
37134053929,1,3,16,28,29,11,3,1,
37134053929,-8,-10,-14,4,-15,-9,-1,-4,
37134062734,9,23,25,-19,6,4,3,5,
37134062734,-18,-19,-1,43,1,-5,-12,-14,
37134076352,4,5,-37,-59,-43,-8,0,-1,
37134076352,18,13,42,21,28,12,5,13,
37134083850,-16,-10,-3,32,22,-7,-9,-10,
37134083850,6,5,12,0,0,5,8,5,
37134098813,-3,-7,-2,23,-6,-5,-2,1,
37134098813,-11,-7,-18,-32,-9,-2,-6,-7,
37134115634,-15,-19,-19,-27,-29,-10,-7,-10,
37134115634,-2,-19,-55,-21,-40,-14,2,4,
37134128813,2,3,12,18,1,-4,-1,2,
37134128813,-3,16,42,34,47,7,-6,-7,
37134136299,-7,-19,-48,-53,-26,3,0,-5,
37134136299,-4,-17,-28,-29,-33,-10,-4,-4,
37134158936,-10,-13,-30,-27,-31,-8,-7,-6,
37134158936,8,16,19,14,36,16,9,4,
37134177233,-7,-16,-11,12,-15,-15,-10,-8,
37134177233,-10,-15,-35,-7,-2,-6,-4,-5,
37134188910,0,-5,-8,-14,-34,-21,-8,-3,
37134188910,10,20,24,41,29,11,4,6,
37134211615,3,15,27,-33,3,10,3,0,
37134211615,5,18,46,35,26,12,6,5,
37134226484,-17,-27,-52,-22,-31,-11,-11,-12,
37134226484,9,-1,-10,-14,-2,-5,5,11,
37134242882,-3,-6,-1,-9,0,-4,-3,-2,
37134242882,-14,-13,-7,10,1,-6,-7,-10,
37134256466,-8,-12,-15,-6,-20,-6,-1,-3,
37134256466,24,42,67,20,33,16,10,15,
37134278994,13,23,18,28,37,2,6,10,
37134278994,-19,-27,-34,-33,-59,-19,-16,-16,
37134301666,-13,-21,-16,-18,-16,-10,-10,-10,
37134301666,-1,-3,-13,1,8,7,6,-1,
37134339051,1,0,3,7,3,-8,-6,-1,
37134339051,-7,-17,-31,-57,-32,-7,-3,-6,
37134346559,0,9,26,55,18,7,2,0,
37134346559,-2,6,3,3,-3,-6,-4,-5,
37134368821,-5,-1,10,35,26,4,-4,-9,
37134368821,-7,-14,-36,-36,-23,-4,1,-3,
37134376507,4,7,12,-4,-5,3,4,-1,
37134376507,-8,-14,-22,-8,15,-7,-5,-5,
37134398784,-7,8,12,-27,-17,-1,-1,-6,
37134398784,4,-13,-30,11,19,11,4,1,
37134406545,-4,-11,-24,-31,-31,-21,-7,0,
37134406545,15,21,47,42,42,22,11,12,
37134413876,-11,-9,-14,-31,-26,-15,-9,-9,
37134413876,1,1,9,40,2,6,2,-2,
37134421354,-8,-9,-9,1,16,0,-4,-2,
37134421354,14,17,13,8,11,11,8,8,
37134436522,1,8,12,-9,-13,-5,-3,0,
37134436522,-15,-20,-10,39,8,1,-3,-7,
37134488861,10,12,-15,-37,26,15,8,7,
37134488861,-9,-19,-22,-13,-25,-16,-10,-11,
37134496312,-1,-2,-9,1,3,3,-4,-5,
37134496312,0,-4,9,-9,14,6,2,-1,
37134503835,3,6,5,2,5,4,1,3,
37134503835,-16,-26,-48,-45,-34,-19,-9,-11,
37134563745,-4,-11,-20,-64,-13,0,0,-3,
37134563745,-8,-22,-38,-2,-18,-7,-2,-4,
37134579066,-7,-20,-13,35,-13,-6,-1,-3,
37134579066,5,-2,-21,-59,-5,3,1,5,
37134608963,0,12,16,37,8,12,3,-1,
37134608963,10,22,37,48,41,8,3,6,
37134616284,-3,1,-7,-45,-3,1,-7,-7,
37134616284,-10,-22,-23,-11,-35,-24,-7,-7,
37134623769,5,14,51,33,3,1,6,6,
37134623769,0,12,18,-17,26,1,-3,-4,
37134646565,-14,-7,-16,-9,-28,-12,-6,-7,
37134646565,8,6,-1,-45,-5,7,7,7,
37134661258,16,20,25,23,24,10,5,6,
37134661258,-14,-14,4,33,12,5,-9,-10,
37134698746,-1,-4,28,44,16,4,-1,0,
37134698746,-9,7,-1,-26,-5,3,-3,-6,
37134713837,2,-4,-11,-10,-6,3,-1,-3,
37134713837,-1,-4,-6,-24,-6,-1,1,0,
37134743843,-8,1,-1,8,-11,-9,-6,-8,
37134743843,8,12,21,22,27,7,3,2,
37134751344,5,-4,-7,30,6,6,4,5,
37134751344,-10,-22,-34,-38,-13,-1,-5,-4,
37134758768,1,1,-6,6,-12,-2,2,2,
37134758768,21,36,53,59,24,5,5,12,
37134766326,-13,-8,7,21,17,-3,-8,-12,
37134766326,-12,-8,-5,-1,-16,-11,-7,-6,
37134773870,5,1,-12,-20,16,12,3,5,
37134773870,-1,2,5,11,5,-6,-2,-2,
37134781566,2,0,9,11,-17,-1,-1,0,
37134781566,7,13,14,0,20,4,3,3,
37134811358,24,18,3,-45,39,21,11,16,
37134811358,-10,2,3,-12,-37,-10,-4,-6,
37134818967,33,44,70,21,40,18,15,18,
37134818967,-26,-31,-14,29,-1,-14,-20,-22,
37134833862,-13,-13,-31,-8,-21,-17,-10,-8,
37134833862,14,23,40,41,41,22,10,10,
37134841536,-20,-12,-6,-20,-17,-18,-16,-15,
37134841536,-6,-9,-18,-8,-19,3,6,0,
37134864027,-9,-14,-35,-30,1,3,-2,-6,
37134864027,2,21,46,29,-5,-2,-1,-1,
37134879061,1,-4,-7,-2,-14,-1,0,-3,
37134879061,6,4,7,2,10,-1,-2,0,
37134886266,-5,-12,-20,-5,-39,-14,-4,-5,
37134886266,-8,-18,-39,-42,11,-3,-4,-6,
37134893959,9,29,62,47,19,16,12,9,
37134893959,-2,-1,-2,-7,17,6,-4,-4,
37134901258,-14,-22,-44,-25,-27,-21,-12,-8,
37134901258,0,-4,15,34,-9,-10,-1,1,
37134908818,-5,-9,-25,-23,-21,-8,-5,-4,
37134908818,3,8,7,-19,23,13,5,2,
37134924010,9,14,33,21,14,8,3,5,
37134924010,-14,-17,-26,-15,-10,-8,-5,-10,
37134931373,-11,-7,10,16,13,-2,-10,-11,
37134931373,6,13,11,2,37,16,6,6,
37134946549,-19,-33,-23,-36,-28,-14,-10,-11,
37134946549,1,8,-4,8,3,-4,-2,1,
37134968801,6,7,10,-21,-21,-2,3,3,
37134968801,-7,-14,-8,28,-1,0,-2,-3,
37134976274,2,17,20,16,23,-6,-3,-1,
37134976274,1,-9,-25,-14,-4,2,-2,-3,
37134998926,-3,-11,-22,-50,-11,-3,0,1,
37134998926,14,19,21,23,-4,6,12,7,
37135013905,-2,-5,1,10,18,5,-3,-1,
37135013905,-8,2,5,3,-9,-13,-5,-6,
37135029030,3,10,14,29,2,-3,8,5,
37135029030,0,0,3,-6,6,-5,-8,-1,
37135036429,0,0,-5,-17,-2,2,-3,0,
37135036429,-1,-8,-22,-27,-25,-14,-4,-1,
37135044052,-14,-26,-26,8,-13,-8,-10,-11,
37135044052,0,-2,-4,-17,8,5,4,3,
37135066416,10,12,52,70,43,3,3,6,
37135066416,-19,-27,-52,-58,-34,-23,-17,-14,
37135074060,-22,-27,-24,-8,-20,-15,-10,-12,
37135074060,13,16,18,66,44,13,7,11,
37135096474,-6,-29,-61,-90,-49,-20,-11,-6,
37135096474,7,17,34,15,6,2,8,10,
37135104057,2,29,33,30,10,8,-3,-6,
37135104057,-4,-20,-14,-6,-6,-1,-6,-4,
37135118834,-6,2,15,36,24,-4,-1,-1,
37135118834,-7,-1,-8,-37,-30,-7,-3,-7,
37135126269,4,-13,-10,14,0,1,5,5,
37135126269,7,15,19,1,10,5,3,5,
37135133898,-5,7,-4,-52,-28,-4,-1,-2,
37135133898,4,1,-1,-1,5,4,2,0,
37135149067,-5,-21,-32,5,4,-5,3,4,
37135149067,3,14,28,-11,-18,3,6,5,
37135156489,-2,3,-1,-22,1,8,-1,-2,
37135156489,-7,6,26,40,26,-9,-4,-8,
37135171561,3,13,2,-17,1,-7,-6,-5,
37135171561,-1,-23,-42,-30,-12,1,-2,0,
37135178747,7,-1,0,23,3,2,5,6,
37135178747,0,7,28,27,15,4,2,3,
37135194005,10,5,18,21,8,0,9,9,
37135194005,15,13,24,5,12,15,11,11,
37135208786,-18,-16,-42,-24,-19,-9,-9,-11,
37135208786,6,16,43,29,11,7,4,4,
37135216390,-14,-10,-24,-15,20,-1,-14,-14,
37135216390,3,4,-12,-47,-52,-17,0,3,
37135238990,5,-1,22,22,-5,4,4,3,
37135238990,-8,-12,-20,-11,19,3,-2,-5,
37135246569,-7,-4,0,44,22,3,-2,-4,
37135246569,7,9,-1,-16,14,16,6,5,
37135261521,0,-5,-13,-30,-43,-13,3,-2,
37135261521,15,16,23,10,29,7,7,8,
37135283843,9,27,33,2,31,12,8,9,
37135283843,-13,-6,-16,-52,-48,-11,-13,-16,
37135298807,3,-5,10,18,3,-6,-4,0,
37135298807,19,15,4,6,15,16,17,18,
37135313902,-14,-7,12,15,10,6,-3,-10,
37135313902,-11,-11,-21,-4,-7,-10,-8,-8,
37135329057,6,0,11,-7,-21,-3,1,4,
37135329057,-13,-15,-29,-9,0,-5,-5,-5,
37135343853,6,12,41,73,43,-4,1,4,
37135343853,-14,-25,-45,-40,-25,-17,-14,-11,
37135359083,-2,-4,-29,-49,-26,-6,-6,-5,
37135359083,2,0,9,2,23,8,4,4,
37135374006,-18,-26,-25,17,-22,-20,-11,-15,
37135374006,19,14,4,-2,27,17,16,18,
37135388838,5,17,16,-31,-12,-6,-5,0,
37135388838,-19,-23,-22,-3,7,-3,-9,-13,
37135396379,3,-5,-11,15,5,4,5,6,
37135396379,-1,1,-4,-32,-46,-15,-4,-3,
37135418995,-4,-2,22,53,26,0,1,-2,
37135418995,7,17,23,25,-4,2,8,7,
37135426490,-5,-1,-25,-78,-29,5,-7,-6,
37135426490,11,10,29,68,68,16,5,8,
37135441594,-3,-2,10,-11,6,-6,-4,-2,
37135441594,-10,-4,-3,-15,-37,-10,-10,-10,
37135456570,-9,-13,-35,-38,2,-3,-6,-7,
37135456570,5,-5,-15,-14,-20,0,6,6,
37135463879,4,-4,-14,5,-4,2,6,6,
37135463879,-11,-4,23,18,-19,-12,-10,-12,
37135478750,-1,-10,-18,-17,-23,5,0,1,
37135478750,5,5,7,38,32,2,5,5,
37135493780,5,21,32,37,39,4,1,0,
37135493780,-11,-23,-38,-49,-52,-15,-8,-9,
37135508913,8,-7,-39,-27,-21,-6,1,4,
37135508913,-16,-33,-13,31,14,0,-5,-7,
37135516373,10,28,20,-40,-5,7,3,7,
37135516373,7,17,32,21,34,11,-4,-5,
37135531380,10,10,19,15,-11,1,6,7,
37135531380,-3,2,21,36,35,2,-4,-3,
37135539051,-14,-27,-37,-5,-22,-19,-12,-9,
37135539051,-3,1,-8,-44,-36,-5,-2,1,
37135553927,1,-8,-6,-8,15,3,8,5,
37135553927,2,16,23,-2,2,10,4,1,
37135568807,-8,-8,1,18,-12,-9,-11,-11,
37135568807,10,29,44,15,22,14,10,7,
37135576501,-10,-21,-29,11,-5,-12,-8,-11,
37135576501,-17,-35,-49,-23,-23,-10,-9,-9,
37135591361,11,16,25,6,-6,-5,2,10,
37135591361,7,9,-21,-55,-15,0,4,4,
37135598963,-6,-3,8,29,-18,-7,-6,-7,
37135598963,6,1,2,-25,-28,0,5,6,
37135614109,-7,-5,-8,-16,-10,-6,-5,-4,
37135614109,-1,7,1,-18,7,-4,1,0,
37135636551,0,-3,1,15,1,-4,-4,-1,
37135636551,-1,-19,-44,-42,-24,-16,-13,-3,
37135644043,3,1,7,-3,-6,1,3,5,
37135644043,-8,3,8,33,-3,3,10,-2,
37135666303,9,11,13,4,14,4,6,5,
37135666303,1,-7,-20,-25,-8,-5,-7,-1,
37135673992,8,17,46,58,40,17,6,6,
37135673992,-10,-23,-40,-13,5,-4,-9,-6,
37135681455,1,-6,-24,-24,-11,-1,1,0,
37135681455,-6,-11,-24,6,6,-4,-5,-5,
37135711361,-2,-6,-12,-31,-32,1,-2,-4,
37135711361,10,13,16,-12,-16,-1,12,10,
37135718850,-7,-6,1,14,25,3,-3,-5,
37135718850,9,8,12,38,24,7,6,5,
37135733961,22,21,45,41,16,10,14,16,
37135733961,-4,-9,-1,9,16,-3,-9,-4,
37135749006,-6,-2,-21,-18,5,3,6,0,
37135749006,-3,1,14,13,-9,-11,-5,-6,
37135771587,6,13,30,-13,-11,-3,-1,4,
37135771587,6,-7,-11,-24,-9,6,7,4,
37135786524,7,-2,-18,-52,-23,-2,-4,0,
37135786524,2,10,46,49,17,6,3,6,
37135823867,-9,-23,-26,19,9,-9,-1,-3,
37135823867,2,8,-24,-76,-40,-5,0,2,
37135846555,1,20,37,47,8,0,4,0,
37135846555,8,19,22,-2,5,-3,-8,-2,
37135868763,-14,-13,-8,-3,-8,-8,-8,-10,
37135868763,-9,-1,-10,-9,-33,-21,-8,-8,
37135876245,-20,-40,-62,-69,-47,0,-7,-9,
37135876245,31,58,98,98,68,22,21,21,
37135898846,1,2,-6,13,30,4,-2,-1,
37135898846,-12,-24,-40,0,-51,-23,-11,-9,
37135913863,-1,-2,2,12,-17,-15,-6,-5,
37135913863,11,19,28,26,65,26,9,10,
37135936563,-20,-25,-30,-25,-5,-4,-14,-14,
37135936563,-3,-1,0,-12,-47,-18,1,-1,
37135958918,22,25,18,13,10,13,10,14,
37135958918,2,9,12,-2,11,-4,-4,-3,
37135981380,-2,5,25,35,53,12,0,-3,
37135981380,-23,-20,1,-15,-35,-23,-17,-17,
37135988771,11,25,28,37,19,8,10,7,
37135988771,-8,-38,-73,-56,-30,-10,-4,-5,
37135996494,-6,-10,-4,-66,-23,-6,-11,-7,
37135996494,6,5,32,60,62,25,7,5,
37136011510,-31,-25,-16,-19,-24,-24,-23,-21,
37136011510,0,3,3,-2,-17,-8,6,2,
37136041499,4,-2,12,-16,20,18,13,9,
37136041499,-11,-12,-10,4,-16,-11,-11,-8,
37136048875,25,21,26,45,23,21,10,8,
37136048875,-4,6,10,-2,19,-10,-11,0,
37136071334,-3,-3,6,1,-7,-1,0,-3,
37136071334,-11,-13,5,-23,-10,6,2,-3,
37136078872,4,4,-25,2,30,10,1,2,
37136078872,-15,-30,-27,-27,-17,-7,-8,-9,
37136086338,8,13,28,3,-4,-4,5,7,
37136086338,-9,5,-19,-14,10,2,-5,-10,
37136123931,-5,6,-11,-21,-19,-11,-6,-6,
37136123931,9,-6,-8,-24,-11,4,4,5,
37136168787,16,17,30,43,7,-4,10,15,
37136168787,-5,7,2,-53,-31,8,2,-4,
37136191526,2,9,40,42,2,-6,-2,0,
37136191526,20,12,29,38,47,16,6,13,
37136206512,19,23,33,15,45,10,6,11,
37136206512,-6,-12,-13,-15,-45,2,0,-8,
37136214025,3,-1,0,9,-17,-14,-3,3,
37136214025,9,-4,-12,-2,24,12,-5,3,
37136228995,-6,-18,-9,-15,-20,-9,-6,-3,
37136228995,-15,-30,-45,-3,-19,-15,-2,-7,
37136243832,-15,-19,20,49,26,2,-6,-8,
37136243832,-4,11,1,18,20,5,4,0,
37136258954,4,-16,-39,-36,-14,-11,-8,-1,
37136258954,-13,-6,22,44,-32,-13,-6,-7,
37136266320,15,28,28,-11,37,21,15,12,
37136266320,-18,-21,-17,1,-21,-16,-17,-16,
37136274062,-9,-30,-52,-25,-37,-26,-15,-8,
37136274062,11,35,61,56,23,13,18,12,
37136289046,-12,-12,-52,-84,-61,-20,-16,-14,
37136289046,12,15,51,97,54,15,7,13,
37136296359,-18,-7,-3,-5,17,6,-10,-14,
37136296359,-23,-44,-66,-55,-44,-23,-15,-16,
37136311485,14,18,30,64,48,16,7,11,
37136311485,20,19,-5,-27,-26,-2,11,13,
37136318993,-14,-9,1,-9,4,11,-3,-7,
37136318993,14,32,50,28,26,2,2,6,
37136341566,2,-23,-43,-51,-43,-6,2,0,
37136341566,10,8,19,44,9,1,3,8,
37136356485,9,29,40,15,38,19,14,7,
37136356485,-32,-39,-71,-47,-20,-16,-20,-23,
37136364058,3,15,29,-9,-40,-12,3,4,
37136364058,24,19,29,51,69,32,15,15,
37136378998,-3,0,31,45,22,-6,-12,-4,
37136378998,-15,-21,-25,-39,-7,-4,-7,-9,
37136401309,-19,-21,-56,-43,-60,-26,-7,-13,
37136401309,3,1,-8,-8,-15,-5,1,4,
37136408786,5,11,12,46,19,-4,1,4,
37136408786,-9,-20,-37,-41,-34,-12,-8,-8,
37136423909,1,-14,-63,-31,-19,-2,4,4,
37136423909,2,8,50,28,5,-4,-2,-1,
37136431605,4,10,36,37,47,13,1,2,
37136431605,3,8,-2,-13,-13,8,10,3,
37136446469,-5,-20,-38,-10,-35,-19,-12,-5,
37136446469,1,2,30,-13,6,13,5,3,
37136453807,9,31,57,65,26,0,1,3,
37136453807,-22,-39,-84,-74,-29,-19,-21,-20,
37136468836,4,6,43,34,-6,-3,4,6,
37136468836,9,17,-3,0,21,15,9,5,
37136476535,-18,-18,-17,-2,-31,-17,-11,-13,
37136476535,-9,-22,-29,-53,-25,-5,-2,-2,
37136491266,15,33,38,33,31,10,13,10,
37136491266,-6,-12,-25,-24,-15,-14,-13,-12,
37136498898,-1,4,26,6,-21,7,6,2,
37136498898,1,7,6,9,41,12,0,-1,
37136514027,-3,-14,-23,-20,-6,-1,-4,-2,
37136514027,-9,-18,-9,24,-19,-23,-10,-4,
37136521233,8,21,11,-12,-10,-2,5,6,
37136521233,-5,4,6,-8,10,3,-3,-6,
37136536541,18,9,16,-25,-9,10,10,11,
37136536541,-1,0,-12,-12,-9,-3,-2,-2,
37136551305,11,9,22,54,42,14,5,7,
37136551305,-17,-18,12,48,2,-3,-2,-6,
37136558994,3,21,4,-20,27,8,1,0,
37136558994,0,1,11,12,12,-1,-9,-7,
37136573952,-1,-14,-19,-24,-18,-2,3,2,
37136573952,5,5,5,33,-2,-1,5,3,
37136581376,-15,-21,-37,-29,-13,-14,-9,-9,
37136581376,-5,-2,-1,-5,-24,-8,-2,-3,
37136596511,15,13,23,46,27,18,16,12,
37136596511,4,-3,-19,1,12,-2,-5,2,
37136618832,1,-3,9,-30,-24,-2,0,0,
37136618832,1,3,11,32,3,1,-2,-1,
37136626307,-17,-11,-33,-51,-3,-4,-13,-15,
37136626307,16,8,45,81,20,10,15,14,
37136641452,-7,10,15,17,20,-5,-6,-3,
37136641452,6,14,-3,-54,-3,4,1,-2,
37136648851,-17,-35,-34,10,-16,-11,-12,-10,
37136648851,-1,0,-11,-46,-35,-27,-9,0,
37136664039,5,-2,6,15,45,4,-9,-2,
37136664039,-8,-8,12,15,13,-1,-1,-2,
37136678989,15,24,29,29,5,8,7,8,
37136678989,-9,-18,-38,-29,-7,-9,-8,-9,
37136701330,-14,-19,-6,-16,-23,-19,-8,-6,
37136701330,-2,5,-8,-1,8,11,3,-1,
37136709034,2,-8,-14,-33,21,-2,3,2,
37136709034,-17,-6,-3,-1,-49,-19,-12,-11,
37136723876,-5,7,31,42,12,6,1,-2,
37136723876,-1,3,8,12,4,-8,0,-3,
37136738996,-9,-5,-37,-52,-30,-5,-5,-7,
37136738996,11,19,24,8,-17,-6,3,6,
37136746513,4,-6,-3,8,26,5,2,1,
37136746513,-15,-29,-45,-5,-2,7,-1,-5,
