weight,trial,C1,C2,C3,C4,C5,C6,C7,C8
1,0,2.1645478415293433,2.6950925824889778,2.913237534459877,4.311369526845208,2.3831791769759354,1.8260340283065557,2.030264227095371,2.599211852438396
1,0,2.1622340268076505,2.822928447199337,3.239301669157041,4.4146108949612755,2.522441124322998,1.662658542346719,1.6882123536765876,2.3068941598800468
1,0,2.5700169263772263,3.007294913302257,3.2298030723000304,4.981579625068982,2.9577657707090257,1.6993983561242505,1.9356378844901696,2.462127855725256
1,0,2.7320797851554177,3.204801698220031,3.8886792708909383,5.703782276714678,3.615176172129398,1.6832635257642383,2.0880039549463083,2.6060698081683755
1,0,2.65777516509944,2.9234416740858027,3.2830179886844926,5.41201020100321,3.021764581970477,1.7959610942509387,1.842470671055257,2.443706333269751
1,0,2.6987435124622476,3.125482189179866,3.545137404017732,5.035320654892973,2.8818244593232305,1.8188976997831008,1.903848183368988,2.4370273258544906
1,0,2.8972644796299583,3.0418834941052744,3.670101238568872,5.525096781309984,2.7653550186123566,1.8259828197107848,2.0576766088441136,2.6485750605401877
1,0,2.859843324429389,3.241294065495142,3.946464200144396,5.819989812305991,2.8436021167593437,1.9787019199431857,2.2533588992435853,2.8283341346923407
1,0,2.882744873727149,3.3444728487911073,4.238571492648972,5.646288926503879,3.0600313581672665,2.049509362715373,2.2645373076467075,2.8396423099067953
1,0,2.6724810156248915,3.1535888329548074,3.7671474987011724,5.023094647880911,2.776001255662116,1.738940429547485,2.2333076491799346,2.4770751115006084
1,0,2.7347351481617257,3.261752743437426,3.8764983532208186,5.343487281570178,3.0322954139136526,1.6812324206398876,2.155949602780796,2.5619396386982523
1,0,2.7953801384406254,3.4002211534390954,4.0023145075328594,5.915834266479419,3.0092708051456625,1.8025904344135082,2.442535951811544,2.5479051765487606
1,0,2.6831608520734185,3.344750005604259,3.9118614631326354,5.377851107871373,2.7947831122546853,1.6365463633308432,2.118172752788529,2.6189551742514197
1,0,2.5703139053482706,3.2732245585758535,3.789148172351407,5.1484270311762055,2.8250049019573504,1.7560234329340958,1.915435130867046,2.5122599142119557
1,0,2.41797837600499,3.4457777004339003,3.9547456555085634,5.085495202800271,2.7885008127703133,1.8554459654645832,1.8497564726634943,2.5274597295532066
1,0,2.473035336612095,3.5243168625714394,4.0216102458649265,5.09315430855672,2.9508863214548477,1.8896157949942263,1.70417525567745,2.301404712246094
1,0,2.686584519046153,3.6780276588054193,4.488408469613753,5.754321835943702,3.3160798800644162,1.95812092534005,1.7605934008418842,2.5486273293471995
1,0,2.343961700178871,3.5442187392076865,4.416161018254163,5.478131453221774,3.263958896653378,1.8050005866173435,1.5968700072549138,2.2668295605932505
1,0,2.4100040807449856,3.522754157620736,4.384913631673654,5.475010749062344,3.489468640122576,1.6473502848604034,1.611767926891399,2.280094142983362
1,0,2.5236295339187973,3.3898660776863454,4.380274609495112,5.585385480168299,3.610122849614305,1.7937441925775786,1.7661639091071926,2.3981297139148
1,0,2.8141328372049683,3.5948643269312273,4.398411383316522,5.6255955086382885,3.7289297421135603,1.889767874680849,1.8685025569931197,2.581307417600887
1,0,2.6113102382462205,3.880110072484638,4.604456457457348,5.358457897029137,3.545688727864392,1.8204894382655559,1.8892348330543818,2.1952926611649777
1,0,2.1922369442712846,3.1878793945556994,4.028815772216219,5.6388458207860745,3.1738286230143284,1.8873063296096504,1.9127115662376755,2.095628042144181
1,0,2.3278261928373847,3.3163343528124334,4.050283266432328,5.923549831031195,3.4168265034990246,1.7594144191314596,2.033961526547705,2.3162383576234604
1,0,2.478325028929322,3.179314445128775,4.4032100803341585,6.196639990016326,3.745775528415946,1.8677993786276317,2.1337475032957154,2.3996970105430293
1,0,2.3583011094948816,2.9821841888352734,4.294813461667804,5.465369838645364,3.66196830911789,1.864024347330859,1.9470801418652524,2.269041483562998
1,0,2.3651793014513487,2.80761869831222,4.1166382144742295,5.400483544382979,3.676378780635763,2.120266945404312,1.874164923795941,2.2803821520573893
1,0,2.4821177172760844,2.9809145006206608,4.458098385279622,5.3050490779989365,3.630248439302824,2.034413693684556,1.7767814415193244,2.1047922849174054
1,0,2.6599413710430313,3.0512032435097707,4.126433675749122,5.302530086642764,3.6094023510985935,1.9810578567036177,1.9493537662741751,2.131880870819357
1,0,2.738711394521366,2.9634145396654334,4.473358788002213,5.3671589837297695,3.700832199600926,1.930683735017374,1.8930598788246218,2.0589753317250135
1,0,2.579646658597127,2.9621803189134748,4.247763697430198,4.93187408176115,3.3460128881864084,1.9857694783633124,1.8942518024293122,2.0318353008838552
1,0,2.46177325140668,3.0798009908320965,4.053103273177267,4.6483899521264656,3.2691621555985586,1.928632749525981,1.813671693878174,2.1500001361637295
1,0,2.5934779007173425,2.8263913227665323,4.014299552096227,4.987255786149172,3.368426966656646,2.0491118537104644,1.9321696926811636,2.415543040455772
1,0,2.519396704517696,2.7599064879316724,3.6162697643246418,4.794721220642575,3.150065717585424,2.040973048289808,1.8280138173761467,2.1974530260224454
1,0,2.6321750738148766,2.548549109091635,3.6673270186030202,4.988769562927671,2.912399133995369,2.0415211167309755,1.890037351184919,2.0733597232967513
1,0,2.6068619130768176,2.653096882674188,3.89991888924909,5.083834891957589,3.082429289525273,1.9280797222071995,1.853328186433932,2.1791969327258234
1,0,2.466516399373254,2.7618133532825246,3.991004577161395,5.458492944752046,3.194135566628847,1.9146323131521823,1.8830039943196026,2.2729531970465278
1,0,2.7325158088126447,2.662569257680389,4.1417314962261695,5.315387172821622,2.907818928870291,2.0574108871816263,2.0135343916599866,2.4933234452062325
1,0,2.9356299627257645,2.741057674184384,4.397241180263516,5.511756386118735,3.1263493982177044,2.1845324203669145,2.151917401864185,2.543896758280368
1,0,2.886173616538461,3.203149520556074,4.161190768885648,5.185768828564864,3.1368205890972143,2.192286056587008,2.174818402899313,2.632947284986434
1,0,2.6370961933933317,3.055536408456637,4.160831379227406,5.482480960845012,3.24571348831397,1.9925647434820752,2.1581806201934737,2.7686333787130026
1,0,2.934108546744966,3.415495882799281,4.032867845749037,4.855121292454165,3.4440271814750583,2.0787809990165864,2.3625057856134193,3.0000618277266287
1,0,2.9703459464612205,3.2061584085671977,4.329249901215371,5.182589648986095,3.4618816863101345,1.925477786174651,2.289196921899012,3.1059943812672017
1,0,2.9359566011547544,3.1633563364429866,4.587614350841206,5.420676896438227,3.3745586317554417,2.0553281651907516,2.48961722942284,3.123615040776357
1,0,2.8912347582035136,3.1640432495007955,4.382165485008293,5.678426255959279,3.4049913388259965,1.9532414784244432,2.477713414069635,3.0370354633481615
1,0,2.803390443914863,3.1811884697787733,4.390481194885807,5.944188143181691,3.5928810938747473,1.9975857063017723,2.606521000539345,3.1501482629959923
1,0,2.9573780696743466,3.3816345714717895,4.596720797632654,6.312951794419646,3.8690062957061424,2.0275275373053976,2.655609778117979,3.372823634504779
1,0,2.4998888023676393,3.398565393580905,4.294809293549874,5.684566382567457,3.230326124655531,1.845040387425708,2.453928047790089,2.8249178840230234
1,0,2.4613419210457796,3.4495392039442807,4.262865797598089,5.801211481299669,3.2549927250880146,1.764641491685707,2.719076025835124,2.9760342302562925
1,0,2.37579148392745,3.682476457244825,4.187324968508686,5.817701908582301,3.375863156764445,1.7657092696203356,2.6908194954151496,3.0849868768417346
1,0,2.5407351835912677,3.716554444256914,4.534569319525857,6.032494469019443,3.647303404443867,1.839867806034572,2.7329317106854587,3.1433343105354288
1,0,2.5663518146570303,3.7659751993426274,4.846627409164497,6.337265137477885,3.526962636180583,1.6683294013538146,2.4877191323901955,3.157439787261169
1,0,2.287401408779352,3.1240852338701375,3.898398607576802,5.505752308257328,2.896647649515016,1.5523962636370157,2.257225822513392,2.649770464171998
1,0,2.382836635703414,2.940759418332642,3.7063999020505443,5.366392583609034,2.9255682017424003,1.5455108119267111,2.3571364781937194,2.7842474870747687
1,0,2.2841477373348544,2.9592994801387063,3.589409841086483,5.20132873678071,3.0719052007313206,1.6632638134103814,2.3592038060249965,2.706225190538355
1,0,2.2203702929966194,2.887958589021116,3.436392460799577,5.151458843802043,2.941029695040521,1.7207652917385103,2.4453313396530563,3.0758812471630943
1,0,2.0194274484036354,2.899040458825314,3.0543142142494033,4.936742507706437,2.7466110500195495,1.697669413544925,2.247158592997953,2.6833249602022873
1,0,1.8155048551872992,2.627698074258395,2.70104107550694,4.62541056465559,2.569706934172467,1.8191955456112152,2.2429595432701013,2.4105140446652653
1,0,1.9088204461910234,2.716339215304443,2.7444369161663213,4.363474684652026,2.7566945525988524,1.6847872413234986,2.475924753880272,2.321724201519153
1,0,2.038674195538759,2.5092367495210524,2.7027258145405137,4.482450505365437,2.596721645996182,1.679683186992476,2.246553195694673,2.3279474187455076
1,0,1.7996373797550884,2.5635708833577824,2.6444735897949516,4.415499549188567,2.7470608583738496,1.7181955195460845,2.0727507771708864,2.1630173035452653
1,0,2.1222537048098955,2.6425489122799664,2.86179458765423,4.935237573516039,2.871672137505722,1.7502640880820601,2.2534886846968125,2.526390211540841
1,0,2.088485570296512,2.7304716150364734,3.0803019361149766,4.719257334710353,2.9606168268904614,1.7136045264307933,2.3511813644021307,2.425435169543402
1,0,2.027990472792818,2.7916119256983274,3.025931198989378,4.564402932425992,2.9362019053792494,1.7567571624708203,2.058920998656062,2.4545278614914063
1,0,2.1309148685159687,2.4141279747841553,2.9323048094195996,4.260141005953207,3.0186862878587264,1.8466635484617504,1.8719112902941533,2.3269637168948445
1,0,2.300218737237793,2.6772270005588408,3.056778259523098,4.504704085407835,3.186744404592841,1.8351854206423004,1.8873085135353316,2.2722386620870605
1,0,2.496623948560688,2.7383917230839896,2.7498482686691985,4.025145220480894,2.657409166957454,1.842126028556523,1.743767690684198,2.271471438955072
1,0,2.4323622397024183,2.7536273535450033,2.7747220937462873,4.25608469486263,2.7163732479325864,1.799145273972916,1.7477456744753417,2.010054626477085
1,0,2.1789842666864385,2.8488902814394637,2.9316620578894703,4.18052569856229,2.72726302716201,1.7341728227683433,1.7085263978505933,2.1746203512916673
1,0,2.2728104572844496,2.781221806638275,3.0118545239227705,4.185274500103567,2.902906096028218,1.6915252528733555,1.7526862379313084,1.931101163950637
1,0,2.2399668991631514,2.7666437466560563,2.889671588682709,4.53930248175171,3.0935747560119613,1.7193928905262075,1.7368318042416653,2.0367685701017013
1,0,2.259002771509579,2.8720429593089736,3.0948628166348495,4.296406934234876,2.947201843405138,1.7907311532149552,1.7329531326032426,2.087515609884457
1,0,2.3004782520108953,2.9543977980463865,2.9709479720080676,4.166971843178009,2.688168455127202,1.7988653250206026,1.8135219380688654,2.0967003809027553
1,0,2.397717832089988,3.270445917215477,3.3754381096504376,4.712643803269451,2.994995120177371,1.8707246280160819,1.8906852203406805,2.1948574383736026
1,0,2.355816472864064,3.463249562724938,3.464452666454491,4.82317806778066,3.1961846258929394,1.8870831807461306,1.9559422895195995,2.33202112420641
1,0,2.5218477284008625,3.722868167605703,3.696861253909974,4.955647839742915,3.206612770516507,1.9569076288106364,2.0190522760734964,2.4264447933390896
1,0,2.545336813852114,3.4651301378825665,3.6241041958581777,5.067763654095825,3.1117828701129584,1.955309784454907,1.9446433129478833,2.3069000248926756
1,0,2.350207047505799,3.422877972396979,3.572578103071282,5.324523365705031,3.1685672065454056,1.7789323599347477,2.100928997882366,2.347325930490902
1,0,2.1026766884868255,3.324065681363182,4.038223447972741,5.7463029056134225,3.4580532989092223,1.7340948999263317,2.052570376430535,2.426109823617083
1,0,2.3751091919041176,3.631090613602413,4.151631420781979,5.960585682004626,3.2696103524353415,1.5919027707293747,2.1182640826234866,2.41567968042987
1,0,2.0984500684534515,3.2867245607353874,3.651899929181277,4.936087141084445,2.758677721736111,1.601408666564494,1.9738309839819639,2.291798372096944
1,0,2.3173097295299723,3.497497567277126,3.603753522615905,5.197765918713456,2.903652663032868,1.600646421953765,2.1319152896145708,2.3835375334175968
1,0,2.3915004943046676,3.2287679358875727,3.7049071624758794,4.992980960633873,3.100729936838254,1.6958859355768188,2.2630898305745824,2.534895619584275
1,0,2.5472856869136784,3.4452874146711445,3.8951681256911677,5.196068837206912,2.8998682943586003,1.752760006511324,2.39442272843537,2.6172998535464718
1,0,2.6692872673603123,3.309408212979401,3.6611612271300236,5.34734070541082,2.9868881971392884,1.9866210156985662,2.237520244088653,2.5597990225934204
1,0,2.711631155068329,3.17981377005364,3.768086595428681,5.870873995876905,3.0619833300436397,2.040554450988501,2.196175857012843,2.644646962565868
1,0,2.671600268252971,3.21010284526998,4.039609779035438,5.458593466994972,2.9532383709367616,2.0252300689042593,2.3428896537126334,2.633403064442511
1,0,3.009784185334877,3.266631852739233,3.999774262462768,5.349262876718571,3.0618786667027633,2.2062771503358984,2.191621347053853,2.9313908106545443
1,0,3.092860842537875,3.500781289957017,4.02795271086722,5.748265502280492,3.2373358024640213,2.2555952301060804,2.4357956556124742,2.6359496325088854
1,0,3.060164610192504,3.4257379401443133,4.0625592498174425,5.552753983772094,3.435083144700779,2.3099203224858886,2.392711177878963,2.6917555935435495
1,0,2.7739937046338823,3.1380857499801382,3.621710207702904,5.436117905236446,3.2837937438632125,1.9115889248523878,2.2167899537439433,2.4365136536300014
1,0,2.6094819964830487,2.616968172516036,3.4110999221483547,5.768006055323829,3.171403287783872,2.0532696444696668,2.1202933146937815,2.541580215354175
1,0,2.6520083354043043,2.6000547794519178,3.4146613294284416,5.252920167063817,3.2637608929587785,1.9641378593432584,1.899887011252389,2.418663232599086
1,0,2.750719484027358,2.69607807972597,3.5449812842884967,5.5607481194555115,3.269085935105498,2.0558969603573627,2.154560369505734,2.532855596949043
1,0,2.6878933821068838,2.7189578524351115,3.4820627960188717,5.297683436914494,2.9536525417038155,1.8657942314203575,1.925981058111806,2.2144190232334586
1,0,2.6438909984463654,2.845288869642891,3.49825555301771,5.590394654969211,3.047420616213893,2.089410310922,1.9423012938082318,2.4525334151623577
1,0,2.2402418522322254,2.692623498672319,3.5353864027366253,5.149845329905616,2.81941134860483,1.932749471579853,1.8569810470741615,2.5017386083774964
1,0,2.3398918461973355,2.86269103642932,3.698195650292765,5.234417497463487,2.897216838062876,1.760150813227799,1.8477747656328256,2.4602333912585834
1,0,2.514600144385809,3.0267620782386464,4.0375497530468785,5.42945697287636,2.954486460341314,1.8820788897344263,1.983289631484804,2.4827214306166687
1,0,2.2107097387833976,3.0125395748459374,4.087709516450002,5.668221815266323,2.9392188082833903,1.9348305538411796,2.060366646365671,2.669906936720785
1,0,2.359500415660055,2.724906411241517,4.015009380816682,5.576055844127815,3.119432003669069,1.8848571879612301,2.180169897974826,2.723602610754645
1,0,2.0768433063409923,2.500011427287762,3.7256555659065564,5.0600517966885,2.961671617591045,2.0104538071886706,2.0306234404236343,2.340656886041815
1,0,2.1260591175691204,2.6372301922489996,3.625547707474544,5.02635963964874,2.830122785147216,1.884618891995142,1.9584381675362341,2.3536856746779597
1,0,2.0441436769606054,3.0792798781080424,3.830586756171316,5.107541487835502,2.8018054683320326,1.8624182623800551,2.098675990427281,2.1963107968637314
1,0,2.0883362058595236,2.961522285274356,3.7014055764662355,4.888780471563031,2.6642750163471356,1.7736890769466855,2.0777605136317074,2.1316736297541534
1,0,2.2542623163740965,3.2534582795859017,3.494298906918804,5.009066606924911,2.533993880944817,1.8912436723029917,2.2428494104454906,2.313672320985198
1,0,2.400062512612872,3.4957604604845445,3.717370624649496,5.518645944038164,2.66678056601913,2.0132087103621887,2.337422517585645,2.460933574911736
1,0,2.6282015941687074,3.461953211512726,3.5932763233623928,5.733480662667983,2.6700166644837724,2.0201923713557712,2.529349526563748,2.527653486971022
1,0,2.4866403059272524,3.459258487277739,3.501944728654486,5.403486704981609,2.874451873787694,2.2316572322587307,2.63518065089063,2.542588388243455
1,0,2.6865312477271233,3.4856986181265537,3.6185295220278584,5.6587007051070435,3.0911863273269025,2.302716958776948,2.498132893748467,2.850474857082025
1,0,2.180877255854499,3.278400947701169,3.6042078848777312,5.605504469007853,2.720714277450008,2.030937642050133,2.3824661968519156,2.550453202224164
1,0,2.457093213865988,3.137022231399216,3.626525953051715,5.927795500972779,2.745010223226959,1.8590349738115506,2.397632755689966,2.7072530639245374
1,0,2.662252678017462,3.4750985702894965,4.091537644670406,6.102007240808315,2.788627602112526,1.9737215143584712,2.5477849821626917,2.8131704549772314
1,0,2.7341829387825003,3.1255606554805917,3.7635484578805958,5.596583005609929,2.580019754387025,1.9769088651816655,2.438534152553051,2.706336103224384
1,0,2.7769801860005225,3.1077453806292423,3.6889141988733556,5.396972621563254,2.7680658387930555,1.9545839433191852,2.6689762152033096,2.748788211897642
1,0,3.0590106844465637,3.3450480914244465,3.8821675008020207,5.548503600505134,2.756796301823577,1.8880885858775813,2.5089322067122866,2.8954919770900345
1,0,3.0292302906091755,3.6659627695249384,4.027900564152239,5.554404176762627,2.9001644058379363,1.9063088870185225,2.741979091885624,2.646951569876869
1,0,3.022083218999379,3.782844995200322,4.113490583119669,5.507411827361432,2.91364124252105,1.8693659854203186,2.7163198702822244,2.6011416474034776
1,0,2.957405654161664,3.575519271944021,3.9994751013351824,5.863763157580551,2.8148528134498827,1.8071042444199197,2.5833326917177724,2.3741257600697274
1,0,3.2049701190335194,3.3884217960299474,3.9270382130681956,5.97732575456784,2.8647114191984007,1.8949706770788686,2.587680512533914,2.3449938404626516
1,0,3.2837663471948866,3.5035446857659327,4.210464968718458,6.083647607783623,3.024646173709048,1.920028423710792,2.7155222600999607,2.5425115954304283
1,0,3.3004402355171933,3.5715125342230234,4.263648622070739,6.102904370665109,2.9782162032201174,1.9119064567362334,2.6360068868881834,2.782324780941168
1,0,3.2936009143196565,3.37232683141833,3.944145869155601,5.7189739661047945,2.935696915822039,2.0495873775857776,2.7989063925407205,2.8477579868644676
1,0,3.690582393816774,3.669323490174136,4.180791271928457,6.039208386209138,3.291515661948045,1.7697107677406323,2.801885461681346,2.8704335659263687
1,0,3.0572238148297006,3.548200637441228,3.7373136605977653,5.522916964455648,2.874071655587821,1.8548365226294143,2.870669831078673,2.3871537671340093
1,0,2.729189638275171,3.5956992097313982,3.79033239018651,5.867582496139798,2.9239939365826597,1.8503740550229786,2.5989208031921396,2.5784947698588976
1,0,2.9233566624354643,3.516057208490681,3.707123263440791,5.824693313242712,2.8455228038666323,1.851368216378196,2.538172023333539,2.580283111414019
1,0,3.0609362809610396,3.2413932164103563,3.6246826915670223,6.382887455469583,2.7791346248686772,1.8223840134220197,2.7212522295787656,2.5924812634898595
1,0,3.077649453857613,3.5080880826165552,4.0584337940311945,6.163691253595803,3.0959621870346807,1.7027737164000036,2.7972212527967737,2.3433526026969296
1,0,2.83837376966668,3.2943274598124073,3.660266192714688,5.202329363779422,3.2103631311717677,1.7603713596469217,2.518617162487943,2.3389526645761967
1,0,2.995253389873525,3.121080514514433,3.231011388376817,4.747793376283115,2.939235178914851,1.7632800711252021,2.336143038803876,2.252262710259355
1,0,2.72041564927841,3.25646891750085,3.8586759195251075,5.481021680982237,2.6969235966440825,1.6687751707644456,2.346393854539783,2.4323136959147313
1,0,2.644854370403672,2.9527949051684144,3.6317779765137197,5.599783506491322,2.507459627164303,1.8359163217368397,2.2498106191364755,2.5448704033534217
1,0,2.5179982732613198,2.916307100832165,3.268265178689174,4.942947984310574,2.6591267311105935,1.901499451386852,2.181620905455924,2.389901100162015
1,0,2.609826602973626,2.801897730378466,3.433402313098314,5.327205875281047,2.9320937445191455,1.8026352747244823,2.313697396578703,2.3066343617927365
1,0,2.6639727863022293,2.9444453201796916,3.1905448972852772,5.1085779352036,2.860601740552243,1.8683171053072265,2.5590059164438683,2.5700379632023953
1,0,2.778437324781527,2.6160276018560458,3.283752536300251,4.858903618201998,2.750589062393044,1.8223831915925444,2.1857806269578184,2.264173713345947
1,0,2.747501429997675,2.6478107490209792,3.174325702558908,4.679412458762839,2.817842632947651,1.950772950218243,2.3423206749707144,2.4016692321120288
1,0,2.558038791880216,2.426431387799104,2.886707289372496,3.813460987084017,2.687063549998303,2.069571326717289,2.1194470098400124,2.1957662969625544
1,0,2.7033860334136044,2.3857135504046467,3.0899692079960888,3.657923896668268,2.53044760037992,2.151172985634489,2.2162311552659415,2.376876024632513
1,0,2.75030500169401,2.465377351217799,3.149028584884118,3.9268595204978096,2.6645345957262925,2.249966397705883,2.0730902042742665,2.4398013816543402
1,0,2.936901924755851,2.828767315894884,2.979645271639705,4.370470131656118,2.9093285224531042,2.198865586164456,2.2054491658737456,2.5806415405466674
1,0,3.0095539620563736,2.4413470796926413,2.788675484679025,4.484250645318071,2.8886490440487673,2.5692932832950897,2.226492576178409,2.6369962343030986
1,0,3.074817194189908,2.9749219074850326,2.826382951752397,4.593452933427746,2.955752812774298,2.6125956197941416,2.396684747177619,2.5277449321022325
1,0,3.060933392498921,3.015137748222525,3.008216834239049,4.640456952976308,2.9874899680790734,2.748251593076845,2.5175679167018243,2.526093575880021
1,0,2.666417821612026,2.8694395051434127,2.8485109326815294,3.940172084318659,2.554689124954616,2.719146478872262,2.504455711883439,2.6798546126533416
1,0,2.9865402532913756,2.6726206414882054,2.9174710768763403,3.961995551491226,2.3645819037919593,2.7048018660218034,2.334866896166676,3.029024240322379
1,0,2.649403204812371,2.553773339941483,3.020990772828289,4.63833353926032,2.7590529191437505,2.511606806422507,1.990894318322106,2.585615572347551
1,0,2.7623193005855886,2.4989901037362046,3.161152760826916,5.032390521036196,2.8821964358850525,2.3271881529442706,1.796147795103147,2.332110982012931
1,0,2.6075636303734875,2.689740284966601,3.427679178843118,5.116074704620349,2.7440812272085218,2.340966762171818,1.8747886208745177,2.4939127087611324
1,0,2.6538181253716706,2.7751525896632923,3.248647102449306,5.7308257279109505,2.847302335229978,2.3759147159600165,2.0554601968486943,2.5414514211334054
1,0,2.8108652777868812,2.835333977814202,3.4090416884165955,5.687612816600512,2.9496463294106996,2.4793567199046556,1.9508906705302218,2.6454167608556487
1,0,2.8072654006779,3.0387493310681655,3.195577861379105,5.572884920562946,2.902429754363789,2.625000269684782,1.9226852681982152,2.7761485358800426
1,0,3.026979239298814,3.093859846633679,3.4673979317488226,5.568679496474504,3.2542028877701403,2.50750461409202,2.051081880195364,2.9519776548544745
1,0,3.2040181246971247,3.1868559748275698,3.716793212273089,5.848203571339501,3.541426756170219,2.7444733749165016,2.1872037035117025,3.0014005876365477
1,0,3.5486227683153424,3.270775565109304,4.101370497764099,6.586368775857796,3.799074114180094,2.598606179433982,2.4965851692430325,3.070931178601364
1,0,3.2880878898645247,3.190649460951318,3.6922916295757386,6.146049797475289,3.456072566533234,2.7547034307039677,2.4448883148388174,3.064340039947107
1,0,3.5370170562128362,3.478149428864363,3.963919568838989,6.212442025741729,3.3839442825320227,2.8260834849013907,2.221091313688287,3.390059960745135
1,0,3.602192007460818,3.5038879485988814,3.9500508892178092,6.243880591686576,3.4724655944725416,2.5543742081041776,2.4613916616035483,3.5475873010308296
1,0,3.019241533316207,3.1541998908116753,3.7241521253529197,6.142613667378208,2.8490510853247932,2.2267451324071814,2.0238397178343748,2.91003817179879
1,0,3.034116235870267,3.5228141316481985,3.735596796416437,6.439417106964925,3.070925580428673,2.3728239552649653,2.0223852989613764,3.2286184213834006
1,0,3.3020134278336477,3.5089785271768386,4.18197062008751,6.406561653062918,3.2910332549467154,2.3409250333110103,2.2322064941603217,3.4370900661269497
1,0,3.077477224295844,3.285374370621271,3.7156320303972437,6.179334062142391,3.513279951385441,2.5775353800478813,1.9989362302868154,3.2187748310729667
1,1,3.4309712545128637,3.152463739237652,4.026842342327837,6.346251017966301,3.2328487137983988,2.0401104187068144,2.665298433830802,3.6321837718500034
1,1,3.2191617828115695,3.4808325872023747,4.122724895321971,6.116351708386165,2.9442882315519214,2.248497375198565,2.5949054284166917,3.6792957233344166
1,1,2.8801876116625293,3.4349128665563287,4.095853946694514,6.495925665748451,3.215715481171229,2.3103528927869923,2.379626553385374,3.119003493747603
1,1,2.8290217567705978,2.826641810779632,3.6057253902672595,5.624924437768858,2.817843855637044,2.099605123234379,2.2645011743750474,2.9342335893769786
1,1,2.8399417958473268,3.0219729683594814,3.650070793416446,5.714477522860539,3.117674519396089,2.35378297734385,2.2643936783391228,2.8628984030379465
1,1,2.4404891058677354,3.0018862449706156,3.3436094320340852,5.129965197229644,2.5763458187195156,2.386094489820126,2.0565044683150857,3.0115990661085554
1,1,2.5190771782801837,2.8774982719104436,3.40018721119511,5.143339650092004,2.5533807236678974,2.2355523976563445,1.9108921508781533,2.816403497968383
1,1,2.5570201774325656,2.7885829708883967,3.596174898375447,5.634279270981705,2.7635405904845687,1.8342751430589637,2.03143656079033,2.993046550176815
1,1,2.633350674151099,2.924364243537249,3.6038549958699924,5.388128556539066,2.8549344077762835,1.9183642954384823,2.0043400504051427,2.9547733603785367
1,1,2.4869138489457243,2.896716485639974,3.1038562371814677,4.931328932075011,2.841573590978632,1.9543266794129794,1.8556091460703494,2.9749638438282213
1,1,2.6811101451551758,2.683668178486224,2.845283226040191,4.927066621566486,2.9495382716022425,2.037518842045515,1.6570467017129618,2.9604847317567313
1,1,2.564996380165621,2.9381134603892405,2.9573746856463266,5.253971206130975,2.944190824465284,1.9591593343124891,1.7577752542710663,2.9788925556016985
1,1,2.6425956742099377,2.925658733997719,3.1077446677331535,5.301630170149809,3.0789168440576047,2.09143341857841,1.763641171545602,2.773488775609176
1,1,2.664890668535102,3.2193261797616235,3.3383736008456473,6.061116437786345,3.408629329794004,2.2281369996381843,1.9681651666678095,2.7515372332517023
1,1,2.569660113840719,3.490708909569584,3.653395345671263,6.4509157981995084,3.406230500057131,2.0964132705703418,2.11573107087193,2.9602384276993017
1,1,2.625959739491538,3.4794311408658722,3.4574133624790577,6.298133578811058,3.078406889387633,1.7823780039752541,1.9709909357412987,2.8899498189085344
1,1,2.559594374651137,3.223542092405546,3.1124689605415896,6.30287131194611,3.393679416473689,1.8655438077902373,1.9689157941283764,2.5280701611420113
1,1,2.612329783997436,3.531524071912477,3.107408163005814,6.421219312471496,3.686321109293692,1.902794674639593,2.0882264418763845,2.53958364782348
1,1,2.7943152544612118,3.5979460530323224,3.434507865338925,7.1170430218256575,4.050906151986476,2.0205086182744534,2.2558236097266673,2.68832688048078
1,1,2.6690912019831714,3.419933539205252,3.4717858455188453,7.178088322668934,3.6556710146805105,1.781170062948686,2.1211123662212943,2.721744541206739
1,1,2.536827437103545,3.5849053940327535,3.388124181211264,7.182695890111796,3.391881921959401,1.9855786461020777,2.2265158210938147,2.8191160813633176
1,1,2.534009969096205,3.1681383000474845,3.375457117771853,6.722384419704475,3.5197021262023,1.889101379668989,2.2907663696013034,2.845276329432749
1,1,2.7509582433317177,3.3340934329367116,3.6618711503006103,6.812816358113942,3.7103582380940723,1.919662824810099,2.1934098769514625,2.986242518666219
1,1,3.1157651149872905,3.310793454683923,3.677135421161287,6.998920976828176,3.7362667906933713,2.0138767175342784,2.3754775213327624,2.892561604184212
1,1,2.906448742713309,3.093782292060164,3.7818397432997095,7.624559870620469,3.7631796494649845,1.9062247728148127,2.398343783936346,3.0536143932404793
1,1,2.3473873780401924,2.616507139520923,2.7994891207159056,7.128406185746259,4.080697045788311,2.1961887620177913,1.9895879586340979,2.8329868233604656
1,1,2.247344408554196,2.4844933295721137,3.0283005284801905,7.430284984338932,4.27272415126436,2.2200066147457136,2.088464076094021,3.1166851049558115
1,1,2.309138913326927,2.6784730939128494,3.1494504181132212,7.3455691865711445,4.219121662646326,2.153345874394361,2.009623794629902,3.1688699644879343
1,1,2.2493295341828756,2.7695793810792155,3.191490600455047,7.359293477697825,4.185456104342319,2.209127205653801,2.131914240330341,3.0820135020457124
1,1,2.433023339115598,3.099621331865258,3.260684299441186,7.651603061179208,4.241124562360402,1.8806635908947815,2.2083285140482287,3.2806008249025527
1,1,2.4444915648882093,2.6201941126397545,3.1600655288618213,8.093079724525039,4.132743629972134,2.0081566125969115,2.265827957072771,3.401605130494514
1,1,2.553236675519422,2.8240916308582,3.421294772539918,8.333905023399078,4.275606187645467,2.1481991925357895,2.525624098957576,3.56635891192933
1,1,2.354126918755838,2.465636998713574,2.962213701333303,6.991147083865138,3.9411317741809992,1.9291563631910387,2.263182457757982,2.996812078195427
1,1,2.397882996131833,2.6382189202735273,2.929879626983692,6.875336265529916,4.096138655112212,1.9643749840686477,2.39470890900146,2.8867707437614376
1,1,2.6017310447825,2.7960187836497883,3.235191244547481,6.346529564216033,3.95321144083769,2.1226573674364886,2.487694701273369,3.026804702653343
1,1,2.894286902548499,3.182788703171177,3.504102147516144,7.197912751024225,4.041391848013417,2.0987928239563542,2.5675777448072594,3.184510148745551
1,1,2.8816813609137655,3.3387516147763305,3.504223339013995,7.2107850910580185,3.842479225189095,2.112018204951795,2.348781737651091,3.4199402332293904
1,1,2.704300932010617,3.1504163274948636,3.160040495352692,6.367000416467571,3.5246171518185845,1.8148352693774894,2.3702464797420757,3.0432168553128345
1,1,2.7124047798362767,2.8645210570298816,3.0933854940421996,6.824293812663011,3.3554047554806727,1.9706642775691205,2.357134637351022,3.231881276987447
1,1,2.7020316681438517,2.8739897145916036,3.2961477545327735,7.353208596491337,3.6049345705514835,2.049113126542009,2.4109635721706177,3.353168562718661
1,1,2.698559135500888,2.895211976350492,3.2474395774959355,7.531561188906589,3.9323756930998384,2.0669915035427064,2.4823203822283864,3.2321648455852228
1,1,2.8344218965057704,3.0116388968567454,3.308285980256517,6.731858393638015,4.289128402745671,2.0238932598171546,2.539285932579773,3.5821306064502183
1,1,2.747851563403642,2.5372237759442484,3.144455829846362,6.353112353233547,3.672210419443864,1.646341116806159,2.379255552224097,3.2982172843669813
1,1,2.5907133693953233,2.6562096709589147,3.4182021219176875,7.315564977880375,3.905266919553236,1.5978013876985888,2.6237166281161928,3.6394904542690716
1,1,2.5952603728308077,2.761046438049148,3.660105219600449,7.577373578272646,4.137290508054084,1.5527360283380178,2.5131774747301323,3.363163749013709
1,1,2.497218695603765,2.9178578698811837,3.6023671034586067,7.918621582670025,4.363397689345852,1.4724640913413929,2.4231701515723842,3.0883022998007914
1,1,2.767446645749153,2.9377186659652685,3.2474339411769066,7.616092252009272,4.3129244582038,1.51190631761156,2.435408646406107,3.0306534135066086
1,1,2.660413840843576,3.155002361035308,3.1920634030268413,8.541110601484402,4.399221404967161,1.6688086114748526,2.3167297119494195,3.14162352711061
1,1,2.754637638141822,3.3242779584272535,3.473281897726048,8.81416150421998,4.676449894860721,1.765973922831068,2.4824458762588693,3.1933009821573566
1,1,2.919867255621476,3.3658769339400822,3.703677365404047,8.438017257253316,4.5412326665270735,1.8769580217955182,2.323211493163184,3.320213103517973
1,1,2.5484517350602833,3.0017694971699016,3.3839923247472576,7.461538617144059,4.1408561473405925,1.909537122105046,2.2227563189259745,3.118135483264871
1,1,2.5463864378728065,3.0861680051409497,3.488252167346368,7.327596702673775,4.0565770731017015,1.8712055099897673,2.18383639991119,2.8166886356176297
1,1,2.7283855546884483,3.3104379470882845,3.7473958626891304,7.3990147934034365,4.073225327188785,1.921556679581573,2.3312832021254226,3.1225751580719883
1,1,2.8582483614335743,3.3724699970359646,3.4385935931628957,7.166654111085813,3.86019524984695,1.8249552705899335,2.556228360369401,3.177202013539597
1,1,2.5910016351819634,2.8428443587135654,3.154231798669635,6.482231211836174,3.424028692226971,1.762343534824873,2.2268589293066303,2.6838512100078242
1,1,2.647700267526255,3.0379428820763987,3.222258903351409,6.184826751644269,3.4237857265063933,1.8178841111802042,2.2198608867845766,2.633427292475109
1,1,2.848243289954164,3.053229593959646,3.4284594727398034,6.0899943997167165,3.670025465602125,1.9548283209234174,2.2564057245136984,2.7336847973501053
1,1,2.835835005618666,3.056038237225671,3.5754390386561683,6.206901328761326,3.769677111042409,1.9623788190866056,2.1875748608115453,2.5918597808931496
1,1,2.915918257496512,3.0412542294191445,3.5518682858446446,5.541975943321072,3.7047874560816605,2.116415067018187,2.2142957085604955,2.6129375544008075
1,1,2.6831908978129086,2.943633578871084,3.136672038528991,5.019698117503144,3.311903108144694,2.1812141476086735,2.0847173318130063,2.3887656853282
1,1,2.6738348509306538,2.741359756403989,3.1165082341332013,5.48756969960375,2.9950046325553656,1.9725311626811994,2.1290795061947505,2.571042613274504
1,1,2.6290598612867013,3.1288822388560074,3.2373507538102095,6.168539528695319,2.9812426886776713,2.3077034045662113,2.2658320116654234,2.7922608059013827
1,1,2.698513403483578,3.014646421461548,3.333144602931941,5.9256197977361715,3.2240228944075144,2.2537334795386625,2.3719673038181064,2.9009280477948636
1,1,3.1142124813727006,3.39093566491126,3.299408838853057,5.848069461424743,3.141015523136899,2.4177547344024948,2.36771708143235,2.778565136873601
1,1,2.6800238926737476,3.0891474441018016,3.062433452381066,6.018865574808578,2.789316742227742,2.4451641157642983,2.281428269429593,2.6372433096413497
1,1,2.6851810702578436,3.177423475572648,3.256250951308976,5.9196817956694705,3.0797776892365407,2.403407128670475,2.1623505882464635,2.352162667810083
1,1,2.8517834149936956,3.3680173342232775,3.561601309490156,6.059753489768352,3.3250879076965605,2.272360718171481,2.285102105342588,2.5813131250373007
1,1,2.927291146828735,3.5667922255845275,3.6827721762237786,6.334579926548659,3.5930677541491187,2.462862563461857,2.4135504580507328,2.595930774482391
1,1,2.7810457473479824,3.4072331863535568,3.9818699842933123,7.002618271388943,3.719590344470061,2.4193191270931123,2.6407830099120706,2.5497633547795013
1,1,2.992407952148777,3.1941153041304604,3.71642437867225,6.530451205157195,3.1948426820689013,2.4276440170688396,2.6492319575199783,2.701584438206025
1,1,2.8386448062592295,3.3813894630032553,3.7000130196813004,6.826754997098272,3.285245856068394,2.413410725511313,2.5696152975770135,2.806605723247553
1,1,2.3827561231599046,3.461215088947646,3.2076191676607464,5.420146838520735,2.7459597717913495,1.7848879789906342,2.0353989137594826,2.054968943867095
1,1,2.3952821443912824,3.508429135608996,3.299878432078089,5.34746886659224,2.7997096189188806,1.8375701647942082,1.9549116139676306,2.086126066406929
1,1,2.282070406287626,3.215005338925378,3.4173073983002777,5.731333730229928,2.909526996870984,1.819901272923184,1.760483665863048,2.178572974760038
1,1,2.398899595860655,3.3290939671061475,3.8540102483161363,5.161010464357812,3.0425646244464284,1.8032166622741903,1.9469905187578453,2.294675310630308
1,1,2.324761385802835,3.1442065123070817,3.712304356864696,4.95935957878377,3.238953517802232,1.8232241170375365,1.9471970575285384,2.170967408400433
1,1,2.6318305590971622,3.1346632278921125,3.471571080097721,4.627050571012658,2.8682256944992166,1.998569371222977,2.0117686914812323,2.2992898500275953
1,1,2.185831534925196,2.7721319986813273,3.34576336403751,4.810599268811959,2.877719328896132,1.8993901016580812,1.8898816998072865,2.208694479581719
1,1,2.0584385257548696,2.773408765532507,3.355145281471735,5.07271285720547,3.2268353638491702,2.2387747660894286,1.998871767079071,1.9941479294923963
1,1,2.1321181491158536,2.672739212841316,3.315978139243821,4.744544550593444,3.338272128331602,2.2451262618843177,2.036385618304375,2.0413360905100015
1,1,2.032336577240718,2.6241182112508654,3.050727213218185,4.9037806062321785,3.0414330368295865,1.981691570402133,2.152746140383237,1.8165061899659547
1,1,2.0747956632930546,2.84835631457911,3.39299354531725,4.971617387795585,3.211631875559904,1.9166160038398332,2.177452109511935,1.8528476653506363
1,1,2.096547279571346,2.7364952588184757,2.803700779921589,5.164403044045812,3.214776247055733,1.881344977145381,2.3144904554560966,1.8850370629496274
1,1,2.3221905767318924,3.153353517881255,3.0546292049589154,4.642453662183589,3.0599561048468806,2.141174004099898,2.477139282243279,2.1101315086246566
1,1,2.1965050265215336,2.9844961348959025,3.1382658829746455,5.037614434413138,3.1515804013898956,1.970433902343799,2.3790821426606943,1.9575264186050187
1,1,1.9767506154926837,3.070096975112076,3.072297377800643,5.250380418000746,3.336147957325646,2.266297348663171,2.180535557626673,2.1051202538054805
1,1,2.3720420966475615,3.0060672826181207,3.248759416645345,5.5514120202015,3.124910203399281,2.147289370235512,2.145876197405888,2.392913006440623
1,1,2.133512629732767,2.548707282572643,2.8178665792219046,5.077369648462974,3.060865259016629,1.6408252781907284,1.8509518122416615,1.9280156761864282
1,1,2.043783311043428,2.684846847215705,2.93575490681269,5.097078337041852,3.2171269997731065,1.8013257244133967,1.9585255079298207,1.8598539185331115
1,1,2.1913133897737107,2.7521958103249413,3.3037879256508065,5.467310351540054,3.3590296793831316,1.838061251270203,2.0482505143332643,2.0577295208749367
1,1,2.215144867320036,2.628462483630854,2.837367069590864,3.9576935830857387,3.098989955680659,1.7947765851064936,1.8405828449659212,1.9814531306310492
1,1,2.1149943819145824,2.641875144470022,2.818705794365031,4.1576062182867535,3.1451028165640778,1.9727880566375298,2.0190884279010346,1.927704976337883
1,1,2.2890555509246893,2.719871556484789,3.1236909246687388,4.588405673130698,2.761414720590783,2.0026263466253393,2.088511136578963,2.168558155288573
1,1,2.4775990003802635,2.9456983462077497,3.170868580032101,3.970954277596772,2.6462807498918206,2.071590128139668,1.8579429708337791,1.97254492189287
1,1,2.0656235264652816,2.600279718450178,3.0475719560184475,4.293486419903223,2.771846498989796,2.1242999075273836,1.8378567101186865,2.0323290333036015
1,1,2.1993762763481564,2.6377251781975453,3.1120406343520464,4.449955310475899,2.8526579147761497,1.703125556950942,1.7692415132419463,2.214280656146742
1,1,2.2298447383798514,2.8689838195056785,3.087824981032624,4.33269825874641,2.717499934968307,1.7869523304991766,1.6592213732459091,2.002986430891347
1,1,2.2097717494336004,3.1438668933801317,3.247993839396644,4.3683800464887055,2.672217687256411,1.82246549159148,1.595993483792172,2.087465975112872
1,1,2.199296408123504,2.941803306827514,3.5333833409087223,4.188830803364967,2.720181879242759,1.908399578780649,1.716890752237532,2.214500823367499
1,1,2.448535011339445,3.021510206418651,3.4725012261221675,4.488767892634438,2.321916467393208,1.9785701321981812,1.8605174724483524,2.4205101036472203
1,1,2.5457248483200168,3.046660786615901,3.1434793640043353,3.5812911635978137,2.5335878233855076,1.9241199032479936,2.1597400000199087,2.174323387542044
1,1,2.5311162806940106,2.6768983831923325,2.817550021415426,4.074152903736477,2.4600655899288455,1.8811265430657662,2.0009282950266516,2.2690068823033416
1,1,2.640416559474749,2.905082655599402,3.0754271780426397,4.217059580280345,2.814925671738247,1.827245755514171,1.8445939550006565,2.4404883893879723
1,1,2.1586299284707255,3.155926676315036,3.1164428431073015,4.578827630435209,2.7210046445900513,1.782915098719866,2.015293404786839,2.462405762553736
1,1,2.578390033149471,3.2060906684547987,3.3049439106080802,4.407579297380591,3.098810629730638,2.0805355362903453,2.211425308901208,2.573887952212482
1,1,2.407579061137172,3.3350473520145294,3.0980838828635986,4.701834407965196,2.9615723734495734,1.8079153354660549,2.2852760822441223,2.5679711029053185
1,1,2.6355520756302777,3.2743653129147554,3.1992917048596534,4.755455259235847,3.0585754539220864,1.9020414824686636,2.2458612918177927,2.8402685712208737
1,1,2.4426552420570053,3.379507489282632,3.0796754216161575,4.617556948020251,3.2018632811490884,1.7306994194366214,2.241281105472017,2.774359834938352
1,1,2.5778594517574023,3.042821723543094,2.9475335514651992,4.430065913102309,3.0590366485266873,1.6533348418926737,2.126768215103616,2.671954974364045
1,1,2.80692622866196,3.249779636387751,3.1687710947984495,4.869092168947965,3.094603312811012,1.5187633664571145,2.0455341106401064,2.611376979977408
1,1,3.100444456263267,3.4258010911232004,3.395509031785741,5.074863633242679,3.02447180627875,1.4066502844133106,2.0983675150519225,2.668919797983577
1,1,2.704717564518367,3.3380860694232934,3.4933659707347497,5.402479548385154,2.7857326716458033,1.6109472649028558,2.192986180419872,2.5120097256073937
1,1,2.664987765767996,3.085206162970682,3.342686398591828,4.737148420596654,2.8062997664144183,1.6804814170336435,2.1009447035570235,2.4283350862810504
1,1,2.5475899085896643,3.251045281386215,3.416831388112794,4.52879671882214,3.0138271383562736,1.8210556632908423,2.2131902420457155,2.5461812158685007
1,1,2.675694323225038,3.1642420780460756,3.3668425441498946,4.733138932624092,2.707161549869735,1.8048102000257562,1.9306925273088988,2.528213994090487
1,1,2.5646095981590644,3.107319922123051,3.497577801841951,4.9897103528963065,2.8496856760406506,1.8542333488589946,2.1791827654032296,2.7110980982624895
1,1,2.4455937555523315,3.2663872027071013,3.5498291612859263,5.181686842492046,3.019368329535336,1.9754253145860508,2.0943788462733837,2.656020814638105
1,1,2.584654602451501,3.3312834021223394,3.890981115709584,4.9482016014668515,3.192440438451374,2.1081368438719275,2.1230984835892373,2.4569008008500948
1,1,2.73104648311223,3.6221672794518813,3.948772963461956,5.637293463882643,3.1484516632000576,1.9532235921803363,2.0426106973346,2.7780190912487663
1,1,2.5134588064241643,3.4290082502374535,3.6906626795375717,5.2492713706304714,3.158492902299621,1.852425264211799,2.2627275076426834,2.56605374634381
1,1,2.566781812382727,3.6704942049862384,3.7935042856637122,5.110076506121238,3.2292640752881114,2.034363672094808,1.9069022424107431,2.6247849303091524
1,1,2.534173113302809,3.5102226057260757,3.911787425447771,5.542996409476783,3.3043486551573396,2.086087720931629,2.100571200605451,2.740064414443259
1,1,2.2618621786237005,3.379483534540174,3.530160052851528,5.231550094218359,3.476535084701134,2.2075002096207856,2.004967046856731,2.6615206351553287
1,1,2.2485470631381443,3.1909848888872423,3.3066631856895277,4.824958187253744,3.160984311293151,2.381831087880763,1.8943915701885257,2.423710719316943
1,1,2.337677209602973,3.229185540279616,3.35598729538373,4.778200438951288,2.594044382475304,1.9515945525274792,1.997634058501157,2.6572203230395344
1,1,2.403356498590211,3.13592542643372,3.1546058689209424,4.544248801058891,2.6555420439462956,1.9182242537497098,1.9243813194754429,2.5565062780786314
1,1,2.4625936544984777,3.0941946295867573,3.369484704783767,4.725246995441789,2.6792761918319328,2.0692549089100245,1.8310128792880176,2.5777558411614407
1,1,2.583033396880317,3.1608569269322744,3.395917361347407,4.924715612306432,2.9618966084068323,2.2287829924164764,2.010707787095672,2.722387261280705
1,1,2.28232806092123,2.7892899835181093,3.094472104322986,5.066092009156097,2.9519858829821564,2.2493436836947414,1.665039758360348,2.3831577025191715
1,1,2.465444126306912,2.956915668699584,3.418080605281843,4.705636445059908,2.9754642424768223,2.0402261561863204,1.8198462634157657,2.614601075808852
1,1,2.657551066578612,2.953788099232185,3.551632533195186,5.112547668180357,2.8096490303787025,2.112692668033016,1.9067086923814522,2.7695176354059585
1,1,2.538097361619901,2.5795420714204997,3.1850070171254536,5.155077928560974,2.705448501964833,1.9607363176438852,1.915668004177286,2.738406410006511
1,1,2.549981576565854,2.8140573887019933,3.362091867526793,5.027823807403519,2.731610725925478,2.1539836565200066,2.0416903787237746,2.796500109505706
1,1,2.5379763512748723,2.875603620055839,3.1831927427033335,5.3145690087919695,2.8217310136668314,1.8170570079710435,1.8398606454349506,2.834528169060873
1,1,2.3408545106686143,2.7481463051928317,2.9449022436517844,5.242911048287035,2.8067255268634246,1.9043197972191552,1.7890033384315909,2.6102827246498044
1,1,2.512081599574175,2.5580311636326667,2.9224023240711645,4.7274782271559195,2.6015053768270553,1.9201104168373835,1.6039467986058604,2.685750955559189
1,1,2.5724672687962165,2.7004327436925837,3.0674316298736217,4.870988157242155,2.6765723126388736,2.0897511263379736,1.7463553049426752,2.4821358749580718
1,1,2.7853282475672563,2.736049805480177,3.385444509515899,5.076501430769569,2.592042076764329,2.126138864149568,1.8394076388562213,2.6994057738347053
1,1,2.704920522564448,2.8641061910448817,3.3696999779606394,4.852682681834622,2.4291945063992797,2.0275944704901048,1.8946425356107433,2.8986794616356386
1,1,3.138643260179306,3.0816006900288118,3.246350796868378,5.1016434315753285,2.524407311646348,2.190423648021794,2.16887669924669,2.9152101655338583
1,1,2.82588017553121,3.2455630253910956,3.202088797657175,5.520006897622189,2.5579686169886755,2.081869298480565,2.0905615076857487,2.844628330850502
1,1,3.141551487908358,3.6494519471584943,3.277142493841162,5.672661678696699,2.7016841830417793,1.9839738788717758,2.1060187485462563,2.923124701203382
1,1,2.801789173085004,3.636566428837043,3.309500570234328,5.962842318675167,2.750299623065893,2.0598020597268265,2.0010684073645844,2.695756715696898
1,2,2.1021854674286216,2.3915937843756843,2.376893436583601,5.2373755427930275,3.2476999926312744,2.2906381978689665,1.7688201297918191,2.4842128519820434
1,2,2.119737669156431,2.3080626469552175,2.1248552422899283,5.344372817002502,3.5025373840760565,2.3844006617039843,1.9533986850482539,2.480511505720424
1,2,2.164746589905873,2.3523584591663385,2.2732895851891395,5.610517923190801,3.771492224752262,2.630546193645648,2.1031340144946284,2.6258987670511513
1,2,2.5148414821599347,2.609898478927055,2.544165931215758,6.1844696116935705,3.8465752194756258,2.571942835194654,1.9279386827063463,2.464353474638418
1,2,2.6620174566172556,2.805879501428049,2.524972327268279,6.6184403541543935,3.6197852331497007,2.635241902369861,1.8359004618861485,2.565351491293775
1,2,2.506957345393182,2.725834865943866,2.532429303759774,6.539954593614799,3.6646388254199636,2.207126962051088,1.623513340143656,2.6011679743846834
1,2,2.3605151539770852,2.610144654736332,2.6293849277081196,6.992368223841806,3.540343276672767,2.200878370070068,1.7596259404962291,2.625329984977602
1,2,2.512752204386452,2.7895316421086287,2.510738759614967,7.074797367985641,3.4009247438178103,2.0709833471563877,1.7545697680425358,2.72419840070014
1,2,2.6496806892928433,2.926440256344576,2.5555825172006963,6.511381725489841,3.5256263509462897,2.064162011157606,1.872643318570907,2.9941941613097023
1,2,2.699520490266405,3.0321115244864547,2.81075598033531,6.778778686761709,3.802922481205568,2.237399375202687,1.833576144223229,2.72318944671087
1,2,2.559408888653867,3.0923909721180354,2.7249402997012337,6.675994432806528,3.837075859910206,2.3321499300929314,1.7750766095572377,2.688498689601177
1,2,2.5175547781894747,3.054241018598532,2.6977815004787873,5.849987918607084,3.947905719121264,2.4020708141987157,2.0109717705213295,2.7943134809791137
1,2,2.7020158442365934,2.9839573262348598,2.7876144613647478,6.123033621996267,3.5801029473057953,2.361437307064148,1.9859200046435945,2.806014970874133
1,2,2.581868012286126,3.1893446528320664,2.7660004659595696,6.435753397975418,4.028859650590586,2.300617578796182,1.7751385162316329,2.7392177771739
1,2,2.6095879537813476,3.2723732499817233,3.0395483393779905,6.440988609281854,3.8041483316991234,2.4955920008384345,1.952276099268841,2.790443283632521
1,2,2.7506025249583694,3.321721120565754,3.095275873555731,6.610725171710951,3.743763000839084,2.489112814710275,1.8886179365799927,2.8932330650281983
1,2,2.4712983537878563,3.299327617875253,3.2726549439294956,6.151945265435906,4.0628007135603585,2.560877952224101,1.977492959235033,2.892606156446335
1,2,2.7088824244946714,3.5247265214480037,3.368145806027981,6.197804956846229,4.284741773441074,2.841821139050487,1.9165190072336984,2.9779547804568502
1,2,2.933845468130508,3.4488853717140286,3.2935396995632815,5.944391781834109,3.8049837709912055,2.809537714124523,1.873281569436833,2.8845624725001073
1,2,2.708147616032473,3.158853366500661,2.6022119369712207,5.55891194472651,3.839677500855688,2.4913570490644865,2.0484525176435664,2.6166607145127716
1,2,2.7155601317061064,3.107244307639962,2.6292743503025675,6.033806754457134,3.198358414410065,2.5526643603436816,2.2112600037386634,2.671495691787802
1,2,2.2673036153271697,3.0839874655618686,2.742812640909977,6.337890230424317,3.1020915561471525,2.307994590619427,2.10425241872416,2.4668785377725775
1,2,2.3557308997555793,3.2515620245095347,2.862488402925571,6.339737016051481,3.106812412514499,2.3295957638287974,2.3219687847436417,2.785173822955718
1,2,2.2963558659602676,3.043392220912569,2.9123764239734133,6.407111806855003,2.970997103713912,2.24787295655459,2.189905501807183,2.7190302506010355
1,2,2.538524483221662,3.0245820667232604,3.064043378241653,6.194494984621007,3.016509719490516,2.4185024999678415,2.07816741513948,2.663647489121888
1,2,2.5926373513819447,3.3978730211790884,3.3091295474103872,6.418116260250943,3.0258200506861526,2.3173618089344776,2.0014870594437584,2.6396271854806557
1,2,2.819137967454231,3.6737915708381053,3.5759131243398428,6.468881159989015,2.8551186485320406,2.301444908609408,2.1304842218444824,2.7337430810808065
1,2,2.8218922716353116,3.469801379859327,3.708541834290802,6.740340747577788,3.04143570771222,2.118884617449063,2.3249357587259905,2.5168126836460383
1,2,2.9571787321325704,3.42847730731675,3.846992323488437,7.496975173814034,3.1159507698465334,1.965269831828987,2.2136425254983934,2.3950869861164388
1,2,2.385510041595739,3.0656465331967366,3.3506361840972967,7.372279007474357,3.2515139181913577,2.1331240143237715,2.383222613109506,2.504344699561868
1,2,2.724470252402317,3.3241402148891437,3.7118305632393302,7.5670781954458475,3.5693830420721326,2.2316772247269645,2.339012821483837,2.6651530405157864
1,2,2.5548181175903046,2.95781747078893,3.362511949009723,7.365118765168631,3.7449419463602385,2.354519305833867,2.119759708229622,2.2455924494984276
1,2,2.477003378685039,3.260189481345846,3.444374429716949,8.330078928536311,3.9490666635588574,2.263159327985906,2.1550807655030693,2.4163341474184175
1,2,2.4890084487624127,3.044187534929778,3.2785791221896554,8.342114877712184,4.04900833705961,2.044622928276758,2.076245193640706,2.6616434623624485
1,2,2.5357488513800783,3.1777301498396198,3.501521241881939,8.21421536632115,3.926578672928507,2.139286270113157,2.1795513874676637,2.6641169536103604
1,2,2.5123437265567055,3.409939983673115,3.5685332280674316,8.608873528127074,4.054330938186853,2.2853093280532226,2.3631916317777444,2.6444644738293666
1,2,2.6679555963399286,3.76628114118263,3.620943235793498,9.194597490661563,4.376805993188799,2.410796002708485,2.4139737548576425,2.8835782238331964
1,2,2.487177692104138,3.4561687104778067,3.4959906069328257,10.145891140102131,4.094696146340702,2.267447045421534,2.2099569691768703,2.6877179184350135
1,2,2.593415137178776,3.75869922597152,3.6185354367629117,9.528274963899454,4.16819720269293,2.4926078736898853,2.4592477545362543,2.721825283388443
1,2,2.678321677958651,3.905092936983452,3.8003418636617026,9.076892890974396,4.075422923311917,2.5711348739699553,2.4492315305664465,2.915310074325088
1,2,2.8199353075602387,4.026022791135401,4.051272745118536,8.706963625420933,4.129419444966534,2.663303683396111,2.6131764965919366,3.3144972607129715
1,2,2.8948388859771796,4.394458731884424,4.211882893857251,9.286653188014384,3.994216352151708,2.8091829006308813,2.8841290974239593,3.3085400119973527
1,2,2.8224812073237864,4.251917848536568,4.038772620509519,9.088287905848691,4.437217324854624,2.512195660474105,2.556337927692518,2.814347148473425
1,2,2.0833013924975803,3.219698062434331,3.4524931770497758,8.424896553733156,4.295902949473155,2.7482006519164344,2.032402548515834,2.4019709455614744
1,2,2.0019674658134883,3.431164888078695,3.1260932803241004,8.851719874212112,4.541341226698378,2.8546386823797234,2.0916454811602683,2.4086174407369936
1,2,2.0459297500675597,3.4311926942401265,3.225131876733374,8.810749495628883,3.959514379244935,2.575769515198833,2.1383580634645503,2.464786562259472
1,2,2.198844709710225,3.5734114174903495,3.3754528667925863,8.685821413291183,4.36689621116664,2.5745829646705776,2.2808823560974707,2.5846611027786497
1,2,2.2547226351233376,3.6259237853863495,3.5151777046632953,8.110539607516305,4.4160161175913695,2.7443465603717563,2.302041938386282,2.6583830566867817
1,2,2.27602334543126,3.9387721661609394,3.7734437103230167,7.946072318913412,4.701469453762388,2.536714908049785,2.219967584095443,2.821322355764777
1,2,2.410935975037554,3.911925047704186,3.8288654414946666,8.03153545878675,4.150989013201536,2.707099390934898,2.365240996665686,2.964626648352462
1,2,2.3201869457278432,3.315184668889295,3.3544429201096375,7.985281694135712,4.360251623076069,2.9363556623885296,2.1872013520399656,2.815127960615293
1,2,1.9914820954227077,2.8161073960588845,2.7026140414818984,7.595727136389359,4.326026767888316,2.8300172406034876,2.1143097256659433,2.5212907295028324
1,2,2.194595644034502,2.963732933383793,2.9632892079658815,7.410016612511106,4.789477610445531,2.824740354939029,2.2152374018939773,2.211695878389569
1,2,2.096171815204834,2.7714619582967064,3.036429576666086,7.817769358339322,4.7150802880204274,2.77965095709328,1.9988193675370338,2.301719070949137
1,2,2.303256098318415,3.0096104750999264,3.337292079087343,8.154736659855047,4.865907077234356,2.972483969709775,2.1219939459928137,2.4200188973688106
1,2,2.2568131581252815,2.608757348322862,3.0972423462766865,7.422670968679026,4.380546702223094,2.763238872880476,2.361955353254738,2.7902074474951037
1,2,2.259186414897937,2.781514533697114,3.074633875656463,7.783083757297274,4.435174771900796,2.948546352398232,2.3751636615614244,2.5712532662676924
1,2,2.319126640582488,2.893657596934056,3.4587362674231255,8.337417665871966,4.743544615508436,3.0968626570232067,2.285649261047145,2.692437596859977
1,2,2.2192875979982962,2.715328740990023,2.9652237445182514,6.2861770123121286,4.6383328781349435,2.90751464139394,2.1653852723191043,2.514666135047957
1,2,2.334231566665188,2.809593825852115,3.137023024155591,6.464226100837201,4.697357174976462,2.8767443813402678,2.2070422081651873,2.5603454482858434
1,2,2.5316934300869285,2.6724472800293926,3.046423496607756,6.446617593162361,4.7348693159646125,3.197267033406729,2.1522003155390395,2.664671607051566
1,2,2.4150632836787302,2.9762340630395987,3.2397195796066427,7.0754501544823,4.614600477189674,3.267883659109923,2.0360006672815656,2.5836079491405197
1,2,2.519611902942448,2.6273364425703267,3.1449462267680386,7.710029221599501,4.060197593139608,3.4286588690638142,2.037964651858608,2.751869392791296
1,2,2.52417257957842,2.4697136209273998,2.8136182140932418,7.985622173817096,4.39005208421278,3.4477475668092645,2.170293116051137,2.580158063728302
1,2,2.5848115899631336,2.4404118898128075,2.623689916595826,7.490355396054083,3.932514364252025,3.129221877218239,2.1012910119839083,2.638976534622525
1,2,2.4515519361930704,2.6044680573218213,2.675167633081602,7.426471894601236,3.716851472848421,3.369422059742745,1.977849806822447,2.487510859123895
1,2,2.6248817145168077,2.472843113574639,2.8130096664089765,6.584908522514905,3.6260662227465663,3.061267054237659,2.017823589764727,2.6160442568815823
1,2,2.773030467457346,2.436380473463441,2.6923849112068394,6.0882336101939245,3.8779204052031058,3.2276763074993466,2.025713492856299,2.4809899595039155
1,2,2.958942334598554,2.5189316833284088,2.7649218226988945,6.575016197690459,4.085652681333277,2.5846579077453673,2.211443039682113,2.5848811962886438
1,2,2.765238470909027,2.3611993607709882,2.8801633818019257,7.085291203290384,4.175361522959296,2.3782004172837348,2.03626281127597,2.568677592201165
1,2,2.846549475749446,2.369710845103289,2.84126016559205,7.097092343863719,3.8483640793956995,2.574444362395772,1.936058479116396,2.5880440667473334
1,2,3.071372616186841,2.543943861792479,2.6678212551472864,7.337765513309685,3.8027941251171753,2.8403986073737584,2.122472634671581,2.8695509378305943
1,2,2.58858626095215,2.3750824225152556,2.7580474551600616,7.407045908592807,3.374778809701951,2.36319219132981,1.7007530286379597,2.441239136750968
1,2,2.777136599047731,2.4672149904505414,2.7679591211861387,6.716480762774918,3.5378884062101816,2.29028047050466,1.783498495340057,2.567681591973976
1,2,3.077096983295905,2.8374526664102335,3.2136051834473625,7.20404368885245,3.7107090501367295,2.5647881184538015,1.9790303951838542,3.0317089965980717
1,2,2.8395956089059795,2.851519509923823,3.2665013254800344,7.553342982262701,3.741147802856716,2.8556211002650675,1.906022679202329,2.5357670326782027
1,2,3.1719065913731455,3.0410272979713184,3.3425767473134056,7.702356910193817,3.5864920307442967,2.281324463237559,2.0866199154814327,2.9663774333246926
1,2,2.851181395592698,2.6773216855805186,2.9764041325287662,6.5983225326978845,3.676682580297761,2.332292108738593,1.7847225506758184,2.493800278802838
1,2,2.8660043650352183,2.8741492222551996,3.3999135779134235,6.969050956494896,3.6374684108231503,2.6668427441361255,1.8861273409161252,2.5664425088063774
1,2,3.1338507496226593,2.9389521633161575,3.49863904145416,6.349911508245246,3.789989051018098,2.584795751135825,1.8673193128260737,2.8616715924801466
1,2,2.8906758798332457,2.645272488339449,3.683896184261818,6.828036738448745,3.8111767865858175,2.1959834446165667,1.9226495873459393,3.002940259330288
1,2,2.7215064342586976,2.713015740163468,3.5343267486494816,7.482709441160146,3.8208059712089755,2.2355331107970104,1.9272985216718277,2.6230077406528616
1,2,2.4434241579371627,2.660264782848326,3.052672774307451,7.956888353317022,3.6555480275874497,2.311956986674264,2.0350449263371386,2.2440053908763824
1,2,2.496830729122505,2.680857895081592,3.346247264930878,6.5664260224420055,3.4875865196341174,2.1343494991060146,2.103412791441622,2.324811227462648
1,2,2.7264799431248496,2.7758518159993817,3.3624065853481424,6.159814278368672,3.658689371308172,2.124183271446344,2.189358351391261,2.5159940155554144
1,2,2.2591765348274375,2.908165430570098,3.1397042176597085,5.756784785754691,4.047118355846216,2.0672581582105733,2.219002412361246,2.4364452337761606
1,2,2.337077840565652,2.9082099758994944,3.1755698250286444,5.995208531765344,4.061000571028595,2.10331859512922,2.248651317045945,2.5961367946678857
1,2,2.4952383249076737,2.9052482416355234,3.3958670372133883,6.492282516113819,4.106483399377589,2.0751837869042635,2.3750238444353573,2.7957044771340844
1,2,2.7581435120883944,3.124831198346311,3.124608931638211,5.853562231421877,3.8309578748516575,1.8285638596090104,2.191898212273969,2.989230050471737
1,2,2.5957124943410923,3.320889103634707,3.0902538377973463,6.238110655123929,3.571311449031416,2.0949535302668743,2.064247799732212,2.827318409579406
1,2,2.861710177532376,3.4956777149082976,3.2942352499816097,5.747408755970049,3.8170528075523094,1.9285497404487182,2.1220699836630716,3.0627665455593074
1,2,2.6759166523431497,3.2852530247651153,3.427794569028433,5.909979265631885,3.7642538307535345,1.7722160177662765,1.9982887039443533,2.8712849157499223
1,2,3.0175639035778996,3.425940809422073,3.847469306815708,6.494676008960369,3.933928789953181,1.8601731973545483,2.0729729407687665,3.0290798215252366
1,2,2.716031730209962,3.3617961734696626,3.4845131107334013,6.355460528609848,3.5700585360252943,1.8621563661020637,1.999819790940876,2.9307487179827345
1,2,2.715718407858585,3.433752615016478,3.317775777298556,5.202406546870876,2.921530903367986,1.8876118490504719,2.07395287725521,2.533049739303043
1,2,2.657414721405042,3.541608016990172,3.4801268526474587,6.377075320484777,3.321810499791136,2.1247043702917794,2.245984967697362,2.7577934165810265
1,2,2.9242066861712104,3.0711545622148546,3.5803757599537267,6.185663817709807,3.4429160771676353,2.0240783437619374,2.418321289718974,2.9888184105753157
1,2,2.8405179478796203,3.6830503807983126,3.525882587028037,6.413370659788458,3.41556117149782,2.2853777216589606,2.5476880387066276,3.2204319637181893
1,2,2.9917060896742376,3.6073043684041215,3.5516935020029137,6.665953117050233,3.1609474305913805,2.482600323072512,2.662361387903859,3.415597536660085
1,2,3.217970607657138,3.8684928058225654,3.6779179796772783,7.627990882187365,3.081574980575828,2.2410044876643167,2.871090224458386,3.5960482116078967
1,2,3.5352283222296474,3.9831113187659093,3.8572680032642674,6.494412370081865,3.510299359409243,1.9337567157419027,3.0204803953339905,3.3665606251026188
1,2,3.8310879295431732,4.417467693903071,3.5531315998565414,6.898262874607348,3.5320771711195267,1.768958152274331,3.2460661842880594,4.13328467314643
1,2,2.527244484406063,3.146033175376792,2.8217725438834385,7.184461327033656,2.9192753095769324,1.9247727648487836,2.412880911035257,3.011955316935564
1,2,2.405625353760351,2.999123092749606,3.01128794712423,6.8798288355792225,3.0592319368976484,1.938060875038812,2.401396694235846,3.2029905040250832
1,2,2.653262224390834,2.770031072383006,2.9237133467332863,6.856997285798204,3.1332510185924,1.814645540575981,2.608468525821278,3.211514571581373
1,2,2.537511765322179,3.003814330546189,3.262473522610642,7.014518963529411,3.4859833062690644,1.987291529105518,2.561892859336574,3.2583581007112272
1,2,2.841115631381299,3.3219888609062607,3.259951504540754,7.082699893607374,3.5729023492606693,2.0598615313296413,2.8206765403562897,3.3966860112985033
1,2,2.845404631415865,2.8914427937567835,3.1441893490244293,7.134027288102159,3.68794809686338,2.025003553074569,2.829503674179795,3.2340010367028036
1,2,2.3901861347461697,3.275316106667504,3.409359223877887,7.991232329382273,3.9124976180693203,1.7655138259591614,2.3719919490193346,2.7288581972447625
1,2,2.346701899693564,3.2820678865295485,3.478709653449336,8.131742008710301,4.301515933424296,1.9196873440318885,2.4936656314430743,3.0682861172320335
1,2,2.600998048622956,3.3935595865704875,3.1683428897782147,7.253245068008405,4.064721793652165,2.0036266818433175,2.3824845155570125,2.9931203110439535
1,2,2.8672318536043173,3.5102272264636856,3.540543239970023,6.9272669996627085,4.405586600397323,2.133811769284304,2.5856610396044215,3.1033105333169697
1,2,2.792134616846906,3.172026922456454,3.3271645649974064,7.178771605925271,4.146241926664381,2.3109018857146526,2.562867170179434,2.92123963358781
1,2,3.032454864164508,3.2255524928598223,3.1555909084259914,7.106815143021319,4.137037028199829,2.088735983170814,2.7614192583358976,2.985868336051112
1,2,3.075216646963173,3.7942846260999055,3.704185988947142,8.237367070827547,4.404468295466147,2.5608266607812444,2.6159319889489643,2.7375993743427833
1,2,2.6090178644111677,3.5605214561270278,3.5163157705346997,8.308387746791668,4.780500353964319,2.6762147455074192,2.742395274170066,2.90165092883431
1,2,2.7575384977074062,3.8574508677418873,3.794129619708422,8.570672566394762,4.94507381209717,2.930901344819145,2.8321918882989223,3.3609215886629933
1,2,2.703364245470171,3.506875084213462,3.2546614715281783,8.85016692162096,4.516215229879645,2.5945194958405375,2.93369236267528,3.2839404372640666
1,2,2.519437920289267,3.5816729376530265,3.076231432146261,7.032911549644503,3.8288191070671065,2.5770129979584393,2.548513172347916,3.0671545967708056
1,2,2.457192889884525,3.2790767132986,3.156949326387222,5.832931961183519,3.7393820982445902,2.6582018841730273,2.455429077699067,2.6700207067438773
1,2,2.2368913559877854,2.7937430004420305,3.2657781425513397,5.905216152487775,3.800516699875063,2.523589341039067,2.434743151595818,2.837972376760205
1,2,2.496212889860555,3.1446981107342404,3.2860953545844396,6.369460146127615,4.186591439987197,2.3539379406541023,2.563823216877238,3.0479967539642696
1,2,2.697096658185202,2.816136387658294,3.2485704814980463,7.045221592500722,3.8002745228210757,2.5301145976133843,2.520699214549353,3.1523533176338594
1,2,2.791837890744797,3.0363662934791886,3.3326597855770794,7.368149875459419,3.6002714487359166,2.731022101154968,2.7162308076741284,3.216413125049025
1,2,2.894022106291127,3.2980632615628527,3.7500251001445974,8.25841956174933,3.959359831330017,3.138387073003641,2.878201302130819,3.2204020478030464
1,2,3.143206255610987,3.1397687567324093,3.5079532905142843,8.166313088309142,3.9055094154396186,2.477575922387021,2.847531236411993,3.3891463368038397
1,2,2.984239675823333,3.3334960568710983,3.6785029412205517,8.732236339027068,4.142361543197611,2.2861539405554865,3.151636554135965,3.58021154753241
1,2,2.794709648909979,3.3941427918139606,3.5749054341896644,7.791558039684593,3.5007081851723076,2.2962244043719635,3.1583435958770276,3.4309086672371865
1,2,2.7532719487354975,3.6356758295036937,3.7757988864258563,7.427224519679988,3.079570317849943,1.9651998653760854,2.8146936048446705,3.2279530174693782
1,2,2.2472416602651126,2.9620280929227794,2.848005422468512,6.163821278792328,3.1170949871674343,2.0467147623253332,2.527696714594519,2.798123547717817
1,2,2.4676661390979007,3.12775944718356,3.127750537109631,5.947858707039462,3.3117613288628505,2.002352269260208,2.8127640311085695,2.980965454925996
1,2,2.74072117984255,3.068104915382745,3.0540061867880577,6.264522777194149,3.1002618014564516,2.2546949170370914,2.489247416838875,2.7826196635793616
1,2,2.669454859532889,2.8281026399355835,3.1081880545830325,5.363635290722146,2.400291474091929,1.972758900462709,2.3831880194920867,2.6632326031211604
1,2,2.952451520187012,2.8357137366085734,3.236920638574566,5.624625016279154,2.5498603884353876,2.0140522599176633,2.6682796126488975,2.947926829627633
1,2,2.9692991286047175,2.9097745374603297,3.532279773940386,5.537286925440472,2.72782936803502,1.8956386830786134,2.5111193019241864,2.8298371897784738
1,2,2.9905516817432307,3.0215570857134626,3.547308083958433,6.034455176436739,2.849192258764348,1.7742043038603161,2.59616604067328,2.9114779163602797
1,2,2.8357096854726795,2.7595245958585,3.63244746588311,5.149190015416413,3.003589665291029,1.9001173233375965,2.6060113614782807,2.9054475578312164
1,2,2.6383080820692277,3.015308110910891,3.006808090074952,4.4690942326632666,2.357509441624459,1.7838351101262317,2.4974920027848557,2.9611776318454126
1,2,2.734315574519904,2.9380120582855094,2.93731699357809,4.865421760877279,2.410970520729986,1.8847161335758726,2.4620003247912834,3.0535244764450415
2,0,3.6522305909166857,3.9716577761577034,4.531557452334745,9.204137434880545,7.305991475433089,3.6047959527854476,4.559713717180481,4.780119743452295
2,0,3.865939096823928,4.10644965166753,4.798049390825512,8.897414959463191,6.079233344824618,3.6327212452988737,4.243324938682185,4.77182754134567
2,0,3.8872248051023015,3.889963284903804,3.9592107794872415,9.671458251203857,6.395050272087086,3.4824287941627934,4.450675092154311,4.7873510951389155
2,0,3.6860151785141952,3.933586284020663,3.884959182863301,9.533310170368571,6.260237266828301,3.307186382971798,4.12761448478684,4.8319963838050155
2,0,4.028071304194623,4.368506206092149,4.36694656737523,10.001676112947075,6.239154100459952,3.7836637165471316,4.738672579487947,5.442426599478823
2,0,4.558327579442699,4.614583862153501,5.0613189832720975,10.24832530250451,7.00164625888811,4.045941442462434,4.7617518132101955,5.139081192303969
2,0,4.398795298343928,4.827496621896117,4.834810649374967,10.130802575799489,6.721941579972547,4.542525915321158,4.936782013197824,5.266382913619079
2,0,4.7136985983156565,5.026623814676794,4.513406845743906,9.648093429387234,7.075999494364022,4.381235653373847,4.860758388426159,5.502328253041972
2,0,4.518622255633342,4.949121377924107,4.536514417838025,10.09133089456388,6.767160993942446,4.3760278391168494,4.646052569489157,5.227129061116972
2,0,4.491595285144408,4.908116964851655,4.7212953509657725,10.462095334267735,6.491381006143953,4.121338853481396,4.284204971435909,4.860587937337406
2,0,4.340681717269564,5.078818427918112,4.93134604139056,11.057596703761622,6.284238143043799,4.039804390369638,4.475659111794066,5.1750903212465404
2,0,4.209807842670893,4.92034395875272,4.94318479407515,10.290510118918887,7.177242087130541,4.30031521486408,4.03591345434219,5.2249191110927455
2,0,4.519138373079474,5.424326807166281,5.320899458046738,10.811016677478337,8.132051468394623,4.302152989751748,4.432559100225273,5.582546407716498
2,0,4.302085539148403,5.251892736229797,4.866239436484194,11.134931714527069,7.274701888148359,4.218559660962585,4.2868488831607605,5.24295938387857
2,0,4.396726830050936,5.238035509503692,5.430596936328189,11.35392248989256,7.45835837593369,4.3251504794361475,3.9105455420422075,5.028376755714816
2,0,3.4331859746029965,3.760643730695374,4.78331078487771,10.873593009446314,6.214067691290513,3.889260425765317,3.526282959379502,4.2331530666573665
2,0,3.2640590958138986,3.843245305371351,4.512914919920437,11.041617114322968,5.6999497449281735,3.5077826175566025,3.458977085196907,4.086295946676908
2,0,3.237757240212821,3.7361779555354224,4.3900139775204385,11.660299256655799,6.08195767290411,3.1337417345701923,3.3228167608517754,3.8660229079822757
2,0,3.1823636883998496,3.454465321147356,4.058971166436723,11.418192133237673,6.335720609430013,3.3725846812496507,3.4501037579481326,3.8551203383288333
2,0,3.2580256546312087,3.724704678559228,4.20747038776926,10.14791575515023,6.422438513575722,3.645069354777048,3.152439760016074,3.800362278785818
2,0,3.158203148274377,3.303410497737059,4.014691411999754,10.828770961926047,6.2180341831216195,3.7952151008803154,3.243450158502213,3.87692301570911
2,0,3.397584088282058,3.470431058412837,4.086936364490799,10.09962289726976,6.680375972558323,3.5286620480489344,3.0556216168480894,3.800916302027071
2,0,3.3993627622515916,3.6742526003964144,4.426262266564488,10.592140964971053,7.025188486939738,3.576569717313517,3.0151850526182815,3.8110939900161935
2,0,3.43615206761989,3.544491094184571,4.129819171559896,10.926664647242289,6.894445738766963,3.4202984694866836,3.130210461039063,3.8827037624686973
2,0,3.5327588254697666,3.6346574780743386,4.23121372698448,11.335652114855968,7.314262484260546,3.673131794849434,3.211960114798162,3.80388007540915
2,0,3.579146670019498,3.6362014688840403,4.220060175915056,11.729474184925113,7.5079903866537245,3.7431656164284965,3.4037268874157225,3.9967703696664216
2,0,3.5705701944254766,3.7699431181058856,4.345115684747904,11.625141725417436,7.336145560285342,3.9080903714368866,3.217285048650509,3.9353141203403994
2,0,3.6867222217575577,3.9490871684365625,4.7666977067109295,10.357394501735069,7.421664864044206,4.075495994890856,3.517453118030928,4.016629055284652
2,0,3.6805900544120034,4.033427843307161,4.942933588384947,11.445386665764444,7.116978512064633,3.8535328321810987,3.576593542364695,4.395727035881124
2,0,3.819153163990271,4.039989132328042,4.880892102364216,11.835918854707733,7.275020064406325,3.9677423127700813,3.8563990260690497,4.575147525824877
2,0,3.7448505334411517,4.236945795919804,4.944183110115668,12.811908426443,8.0222004202075,4.181867841574693,4.180710478261857,4.8482150251044365
2,0,3.817877290033342,4.536128908207523,5.370373542430652,13.307305702072794,8.51484374259578,4.391497190904794,4.508599572481405,5.271014087600023
2,0,3.6518095051339317,4.1291991441019285,4.86148344174737,11.195159190121366,7.831180878172185,4.422462731927798,3.899363430928417,4.702404657390755
2,0,3.501272533689757,4.1283458424132755,4.729155385665492,11.303089186691937,8.523350120874147,4.581036072238102,3.77802418104786,4.373161121907571
2,0,3.128135091560471,3.533419488887875,4.5576192342559985,12.544247977916228,8.214282179468432,3.836465102216396,3.4976232957958207,4.121242829759968
2,0,3.287026150536922,3.738907726202902,4.792766727600672,11.218682706720308,7.3848212240613975,4.060214812766578,3.822044024827292,4.370395861479325
2,0,3.1096164333407943,3.467508532103055,4.095629453550916,11.233274153680231,7.601191017993941,3.7226671470794983,3.793868497566853,4.195381146667603
2,0,3.13357127176106,3.6375765775439577,4.162044791803482,12.099808914236192,7.554954136269939,3.6555389686551303,4.005605764311147,4.2414631079724305
2,0,3.2179101563927506,3.769849731565352,4.3060498461389125,12.593086188059493,7.335724636452868,3.664267246274249,4.036952097361854,4.564053622844669
2,0,3.425392808490399,4.133596292411645,4.6900916613338275,12.703403871738486,7.263799568670657,3.821329819039431,4.278771596238771,4.88274334500798
2,0,3.231348339068831,3.842802638209205,4.322356342931756,11.819646825713749,7.554973411421062,3.889973643535501,4.051737188445613,4.649431635828007
2,0,3.330153843329793,4.116695190453979,4.064819393071568,10.286379313206496,6.753910871729097,3.816007096824183,3.702292337898048,4.602079102555094
2,0,3.3202340420752376,3.9519691286367835,3.9891395496591824,9.976914085979073,7.114630958434905,3.8739915111720205,3.979576846349764,4.590207076051704
2,0,3.082006783703217,3.957206016188749,4.173597041260015,10.802641827366587,7.204568840928135,3.448345748370781,4.072927989785603,4.542642227054811
2,0,3.23727108026972,4.161269053510676,4.241750926416489,11.446587809473204,7.830541812270705,3.6704867684160347,4.246477364593532,4.799464768949565
2,0,3.256005286336306,4.423793869739062,4.455078110348049,11.3672784701496,7.674093800403719,3.5520748875848684,4.161208773227442,4.716233933020254
2,0,3.202020124462866,4.425134020976249,4.084420416944531,12.459483328797566,7.649725313192051,3.8981407433993662,4.350757479558181,4.845165567053296
2,0,3.499370959133719,4.913435332316859,4.569987419812263,12.409640105197479,8.385990448712976,3.9583980681903905,4.365768692920582,4.7333765313463925
2,0,2.982310839188951,4.124989069332627,4.164552342026559,11.615591728613303,9.044710570605623,3.7454400653466178,3.6566555026122924,4.282535479910909
2,0,2.9606190421543293,4.135292206272988,3.9450678109423145,11.338890015634593,7.718334550792124,4.075366035632835,3.757508583786696,4.363306009870831
2,0,2.930427919291742,4.089447731641821,3.95351627997586,10.585452632119583,6.694566090732773,3.664375047503404,3.7994191913069395,4.115040809935551
2,0,3.1457426149775514,4.277498669155374,4.087956527876391,11.321384638595582,6.942126601926232,3.3752397998559474,3.653218706100883,4.189432259788852
2,0,3.204716370242535,4.111805118973039,4.097935841241047,10.856945575125224,7.106210262807758,3.500632456084654,3.7221206184704956,4.086500229827504
2,0,3.6106488266165115,4.36336577699559,4.228910352754909,11.163441435946936,7.1541711080359445,3.457369650283092,3.8017422946034483,4.403925147038576
2,0,3.8483571634934934,4.5509261839261566,4.743807498188982,10.75592025470357,7.726681879950377,4.030784183243373,4.24413047937948,4.630801728337925
2,0,3.8299047169856637,4.597667745440287,4.467298341358481,10.721692130708686,6.396714552190551,3.919541563118011,3.7360479140611917,4.4550569723562665
2,0,4.086253598223393,4.7919718173394585,4.505723322559416,10.772817474294184,6.505676385656722,3.8682786553998003,4.015390622937061,4.683617001366999
2,0,4.174455933995096,4.860936609110568,4.279673374609656,11.507025338139242,6.3260452284424336,3.7413295489573084,4.2858613985754,4.938202918217582
2,0,3.6976124675981494,4.189784431637442,3.7825658107511617,12.171924560836345,6.2540721999800954,3.991193269755407,4.356885659123916,4.539255354976069
2,0,3.59076469974012,4.384307503973623,3.7916464327205763,11.382210779544538,5.967777166644263,3.9958104146873556,4.354574512723922,4.640432372916817
2,0,3.412718727979981,3.7692936068701934,3.98873894390556,12.763419601266193,6.62077534869986,4.4310777242813915,4.633237380022199,4.531439517715491
2,0,3.590863571102957,4.0361937631903295,4.4920124365035825,12.857276891243282,7.089380190622408,4.59073495429793,4.97265402595233,4.951761142629413
2,0,3.3860152361542912,4.188623926251718,4.183403878776731,11.3477170498657,6.3493693691027575,4.539440236545184,4.584043938160463,4.729113608422558
2,0,3.2952805346362806,3.8389457384373817,3.9343567379044972,11.7854837709942,6.305440107983499,4.119267008434748,4.47742816253411,4.30975080463587
2,0,3.2876723054251102,3.8971008706755152,3.6583383761469492,11.587694920170712,6.754672759628135,4.312703396598244,4.297499280868334,4.447433663135238
2,0,3.1497804479912523,4.133179512067692,4.132953900120645,12.254351914731734,7.268653465243967,4.166616901555072,3.968283311216432,4.37047626172706
2,0,3.353008515803204,4.43387722281509,4.426416354949378,13.065011439492821,7.355502632530367,4.102402638051137,3.9546488855199944,4.538807103442609
2,0,3.430262781746817,4.3599259501680585,4.338779471382538,12.2980609580802,7.35096100572464,4.201572328978829,4.120806511218801,4.571608837223998
2,0,3.4852880409334897,4.359861484971448,4.561483317875327,11.739933407548667,7.0217148711204755,4.116115587634318,3.976579000651038,4.080145565242401
2,0,3.5908833166968437,4.713241298212376,4.64335103053691,11.143779686757181,7.191774615995079,3.8539027021468915,4.135087407769886,4.284710805443551
2,0,3.413266751267633,4.544748835692241,4.477238514785953,10.054452940854246,6.570821394653703,3.7236499467160113,3.7186186640055894,4.2029002008876555
2,0,3.5567863037104837,4.800009289116254,4.493275991209572,10.255564866874412,6.914341546845105,3.8581804470582197,3.8112121701100983,4.355499145975449
2,0,3.5960385705363622,4.064391958008894,4.648549363124504,11.019087138761527,7.304646133206354,3.9209551249602725,3.633567615719985,4.274859055560514
2,0,3.644154136322392,4.13776396492927,4.690594462306047,11.444491175804028,7.196130965304104,4.460953560008423,3.899556929935381,4.596211260711753
2,0,3.7697806538114627,4.421170930680257,4.966268278957082,12.103002212804192,7.11146850851217,4.308017182648809,3.784779573125424,4.5201696563890525
2,0,4.060105515397736,4.799557832884639,5.33611994099366,12.161595912029009,7.510093868784857,4.176034923232736,4.03597698318134,4.497078542640419
2,0,3.9743119936948217,4.9099226608165605,5.313931668390311,11.908245707464692,7.884798774225796,4.291528321541018,4.299257584102664,4.619286695643535
2,0,3.874072904801901,4.689358046740628,5.1189663870269,12.559237039033148,8.000217244829274,4.12165595914546,4.140510950982321,4.4839965295942
2,0,4.215468250418498,4.914194510349942,5.454743944409074,12.636818435493618,8.489365416304311,4.468169931212244,4.252538069645871,4.870036175795439
2,0,4.493741546015773,5.4152149418925,5.8463579878670515,14.048478336541981,8.380298432907574,4.5870441075681,4.498906910098683,5.159441432343348
2,0,4.437399550123605,5.554842053904279,6.1553555358267555,13.853647906455935,7.665613847443061,4.635530004392925,4.727342846182416,5.410628940389689
2,0,4.597778283420008,5.188804859916977,6.115612628874574,12.910486618753588,7.37080560663575,4.22855194191225,4.550041645147905,5.418986030033221
2,0,5.0952994778611,5.523902335007553,6.213606436345376,13.69769708336282,6.997151126135196,4.129577137338848,4.666339262124761,5.760135308529442
2,0,5.551178756558497,5.667241181991705,6.634300649440969,15.317331635872712,7.265274958498475,4.286569539372652,4.950734394628926,6.075103966278332
2,0,5.120248663209251,5.397203923891006,6.342472912512662,14.19375613396157,7.126824883829668,4.341184713501287,4.150836264719111,5.4574115785323265
2,0,5.4450561033016935,5.735335367635303,6.389953419391569,14.020194542353748,7.6180699911598975,4.224937739586078,4.517975161380786,5.72064304063195
2,0,4.6044126531122025,5.055611440134672,5.8276986031005835,12.713529899519907,5.927703471790769,3.7698635976305988,3.9170531647695825,5.014599040411512
2,0,4.558413928628304,4.994657042916781,5.980398269113147,12.17125506314022,6.360515647392083,3.751650852638536,3.5414936520093336,4.869306269570209
2,0,4.175864783707442,4.727611000275827,5.552266008052044,13.548252556389174,6.100055305830294,3.714166756743376,3.5887497066870484,4.632861389033693
2,0,4.136846793036671,4.915038830937839,5.38978149570303,14.47376533658291,6.225325433218581,3.4198268517180392,3.9297134260749385,4.737367791307863
2,0,4.183612388093995,4.908385559313904,5.524444795761377,14.614340592976939,6.292868048600319,3.47750315607852,3.9654964923044407,4.8016815142776945
2,0,4.527880187739218,5.114021256395766,5.438935773101781,14.77468719138303,6.5962351841039375,3.8074345513761427,4.426568211759842,5.2319726926374255
2,0,3.9757179981115423,4.560862925962965,5.033612255817726,15.107595103359985,6.418669039765596,3.657836772205327,3.843387377099476,4.553197637584519
2,0,4.414906065916229,4.9166803281518385,5.532867266942031,11.722693211570695,6.3159808616364925,4.0458088948317465,4.259890218512641,4.668986099848634
2,0,4.204069326201967,5.106048337840204,5.610076630978084,11.69854717648805,6.576491704944082,4.038326692348653,4.101919931623292,4.648019489994988
2,0,4.331742140936047,5.191319739095236,5.656552440005878,12.951665603044429,6.637997960617779,4.062538050052356,4.465698327877835,5.247270479692152
2,0,4.6348037151944474,5.494652654730942,6.050447317929188,13.818864258653662,7.0588752488015585,4.24399330966725,4.502791511626459,5.063689082058894
2,0,4.705206867953164,5.752800747187733,5.872722412127866,13.578608090385325,6.986757523152529,4.2513647848910665,4.380891584955961,5.132338977361192
2,0,4.655455175999161,5.842892504481814,6.238099810719758,14.429874380734235,6.803035769112918,4.043740921634122,4.223803900549585,4.71692068951162
2,0,4.205879132543292,5.521996670521778,6.014445256626692,13.972974564813807,6.544820261889979,3.760492731512938,3.924238486464484,4.568388147293635
2,0,4.117840084111307,5.84205391341264,6.208113144412099,14.762573469198836,6.6813104268172285,3.9419317812781087,3.873944000696318,4.275995310707955
2,0,4.298652181137003,5.515280530156263,5.587306065092806,13.813688832026065,6.219514977471509,4.057030858106698,3.960945660635411,4.3274893830535035
2,0,4.213828306057154,5.984748470650546,5.864366601162999,14.980721040259061,6.626194216582431,4.364571541934889,3.7826702994384425,4.166047961818863
2,0,4.001874202302874,5.5596253475393755,5.612527548809493,13.405557818299815,7.290717762458956,4.237244702008601,3.7168732882161573,3.9929313832338003
2,0,3.9226423140137854,5.551881001560759,5.492097832479179,12.701763504936519,6.267349665405971,4.257250562243857,3.8381789460678832,4.353470584694993
2,0,4.189252827740084,5.446359060285857,5.473346400907273,13.508180861802654,6.3132353044086145,4.185826994990791,3.919556250162823,4.3846504770141745
2,0,3.9585498731412914,5.603014782395645,5.521418355142254,14.458829325881595,6.287983231893378,4.4826099577656,4.022884651722987,4.472530542711132
2,0,3.466688592553998,5.195741409031486,5.4573733024417255,12.747902624649695,5.358050783089347,4.363428236266207,3.6973659537580503,3.9530913904488387
2,0,3.2240318255574323,4.731683790929805,5.359946390338616,13.333747191604267,5.316998692702559,4.803242102691218,3.821331302397424,4.004093027296926
2,0,3.2723688915862246,5.03187897525041,5.649888655037161,13.17310265954431,5.440994949423025,4.473306310795254,4.4019095132153945,4.199216469173939
2,0,3.255551869361743,4.654909988800061,5.609828607744255,10.871608005811535,5.491322528665803,3.852731484987305,3.7339926831899546,3.8193037754772603
2,0,3.37502143464839,4.621505048627943,5.751293895877744,10.744347398929818,5.98339181315451,3.897553568190151,3.8222705636535395,3.7029538393243597
2,0,3.4110789641911583,4.781816004179362,5.919932327079272,11.458491794357897,6.12018889400898,3.7553205905936715,3.9442240324879885,4.187244158748177
2,0,2.8100601393707434,3.5871316374218396,4.538518104279618,11.928608937298243,5.928390947383627,3.303761301163751,3.0310930726508154,2.8516632074017045
2,0,2.916077864648588,3.3460023780150343,4.533176468948545,10.301897958529263,5.476263692882819,3.5173672454455414,3.243438333496614,2.909230670006622
2,0,2.624330440802716,3.32342435100378,4.617653941219658,10.588276325052608,5.829199862598346,3.1349898741038205,3.1380452187699053,2.979954294868877
2,0,2.57164747721071,3.700375383687343,5.096405463868825,10.638157890274607,6.228300444749202,3.4369418443522535,3.2298004337736286,2.9707247227741975
2,0,2.5335231500615505,3.4300148295737705,4.932686029709844,11.343873566193071,6.44922447758084,3.359319786370887,3.1683997457394715,2.9182436949092385
2,0,2.73088341936096,3.743615986956666,4.926752910830114,12.00586460809502,6.78724482756588,3.4877668635771983,3.1379469053917655,3.1696742440022465
2,0,2.7455374275036943,3.3611989186205293,4.793252758331398,12.590511784968403,7.4246760659780335,3.4898261391696153,3.214761294635771,3.2608973448375225
2,0,2.8788599612109507,3.6925749567375328,5.063276245714922,11.2751250405647,6.926030495575111,3.2277212999886835,3.3540652904435033,3.230674240936204
2,0,3.06267200688418,3.3888619285767505,5.021737298902676,12.187904229313704,7.044298365849263,3.2661546681856883,3.63255790552424,3.5032779679874992
2,0,2.9876355801671304,3.477061459981551,4.8117374680872755,11.171721477493232,7.008226848611872,3.2126149039320966,3.2862985411859826,3.3548809611134383
2,0,3.008757927213272,3.4339307435022426,4.553511896730127,11.995785067684682,7.331016238200149,3.1863935198372837,3.581640084602507,3.579792182911828
2,0,3.0940063496305643,3.651240646240929,4.769917092709671,11.941738616286608,7.3581294162678486,3.347273205583575,3.570512585076879,3.630418636242402
2,0,3.116615760452349,3.49748954944936,4.586521157851886,12.847669886154957,7.792367747818077,3.618111650009986,3.555704977619862,3.5167201672223403
2,0,3.1886914631305805,3.4507774143564283,4.505202922013862,12.363768298610633,7.823402010382308,2.992373149957085,3.5448164374719275,3.575381993168021
2,0,3.1948301685598723,3.722368222140323,4.664270250589057,10.93373922863445,6.507251677606323,3.1139346804709307,3.4168045241012672,3.5394392937526797
2,0,3.307882020467938,4.186768834997147,4.566025394072663,12.064671093551052,7.313364037269168,3.3689258504939277,3.928421844126209,4.08003098710652
2,0,3.5688547168213334,3.736406789469014,4.146643677596118,14.067096389339008,6.767757175465216,3.460149816062062,3.8246000115081484,4.185130002963395
2,0,3.7110577294428357,4.142441902191827,4.698250618888863,13.21419507075908,6.684012243638911,3.1766689162253927,4.1073338805468955,4.5893540693376975
2,0,3.8454326916418817,4.10843119685633,4.840064717131798,13.508441421390689,6.602695139376292,3.4853705470931247,3.9701865910403398,4.638395214972104
2,0,3.390280070342659,4.056567261638623,4.633680228606602,13.094385592638552,6.302112975967235,3.3482479636234097,3.749995502885492,4.260142062943194
2,0,3.3925261934855997,3.7672535696330405,4.49087049721005,12.941890928161955,6.222976973045352,3.240529670063525,3.706571367214996,4.189245713772682
2,0,3.2911119929661923,3.632748412589972,4.530251254014007,13.93708188591062,6.543294893675507,3.589131353010155,3.668483705691191,4.211094709931389
2,0,3.2168296630202544,3.645018261202854,4.480487925058478,14.634418813013175,6.791266739651783,3.9876928298210044,3.9024457780655486,4.626544444254885
2,0,2.9742864854695696,3.5195558070092146,4.244950750914572,14.505066598090794,6.61982209163694,3.900965437847317,3.6269188369705816,4.028898921400433
2,0,2.8465433900194066,3.742343623762889,4.317611121232807,14.62971771244655,6.380745963887971,3.8073841184984225,3.582393558678235,4.202047265406997
2,0,2.9608339083651183,3.9118873003992465,4.2854610355481615,13.287689857148138,6.773276223281561,3.9740777309647766,3.641667795805567,3.9787016886600943
2,0,3.026824959543383,3.538466566808739,4.145242965395872,13.198784248979925,6.970940413586771,3.7721334329454375,3.7553609132291377,4.0209048059309005
2,0,2.9355502089552283,3.7548123997460183,4.3414117682391495,13.154167988030732,6.822525401140738,3.457921519199763,3.4012109045745214,3.8380404481270842
2,0,3.2137624416149664,3.842326862025403,4.41065727312536,13.479973799604418,7.472340155910581,3.812543109242052,3.4833990736053773,4.0955743483216205
2,0,2.7150170977969585,3.476832862035129,4.142630973833509,13.720015344664153,7.628214406040238,3.614671844825457,2.8947693331821145,3.346279094300264
2,0,2.9933851420023774,3.5195666715160487,4.2694471220742605,13.909663170050235,7.908887838862704,3.6297942522913162,3.2217524134854334,3.4210114451048534
2,0,2.961078894246603,3.536034102638273,4.273267261530242,14.73296304896815,9.070582111409,4.051482200690825,3.3315176586377175,3.643700392104344
2,0,3.163217790481979,3.7281725616605135,4.726791322604429,14.548652413300044,7.771615846694113,4.508408795747028,3.601040819108732,3.8738664995796244
2,0,3.0256429044994255,3.6950872312784293,4.7944900559247925,13.457888920821933,7.391845519447552,4.351712586868851,3.946568143624951,3.764513431423809
2,0,3.1913323189077283,3.845552128806633,4.805469337218107,13.565583845749492,7.247855317223648,3.4595204433740796,3.9049224071969952,3.766436656257329
2,0,3.101598291688715,4.317196148965965,4.750690266804353,13.164694772413593,6.854438681628605,3.5751682548624246,3.879950704901623,3.8409408176191406
2,0,3.5164345593365254,4.3271545945602785,5.2446448976994295,14.11212410491289,7.569140398328446,3.8209427587886653,4.077658165760394,3.9647684006367685
2,0,3.3625673807597494,4.44991613573472,4.6439273606022535,13.690082632894217,7.249526876211985,3.8423765961042475,4.33859073176625,3.9521599211696468
2,0,2.8024000244207565,3.9148739731223237,4.354896134319901,14.005863810118237,6.708718421628136,3.7700846785022053,3.912129082057109,3.7078036990717083
2,0,3.0180270207055777,4.149627248434511,4.535780982887015,14.268861229677237,7.33723868578559,4.027308584265948,3.9421809754366146,3.5753204216281405
2,0,3.2875732331383967,4.461895807978508,4.548611612459931,14.949731466981977,7.139005898145355,4.299923519201621,4.029112568889763,3.815429438395418
2,0,2.9299293665719355,3.808688621417697,4.459209724109593,15.00194926513293,6.802480516006634,3.770283479889424,3.6546926897192025,3.2363171214459436
2,0,3.216493422405958,4.00168852015364,4.5704145462155426,15.142731749004232,7.361100615214636,4.01585271345495,3.9511340632451564,3.5403053739580246
2,0,3.4403112540960863,4.347885999313753,4.443775576099277,13.262937711670094,6.401580159607173,3.8048358550208676,3.7200647551682438,3.498316698236188
2,0,3.666137301830818,4.7920406531662945,4.593696958891959,14.33412149925725,6.9383801906933655,3.416481602606619,3.8188944839709764,3.8855376237907806
2,0,3.6020436469393173,4.556446258466065,4.836391881242555,13.148561844940332,6.755917886641467,3.548610354226759,4.127885827287405,3.85996695980367
2,0,3.610722824207295,4.52400419212514,4.917124794699416,12.863431615498405,7.166810093446136,3.723124712227514,4.023480772463637,4.104915735225392
2,0,3.950961861091243,4.656853749677745,5.506963156674386,13.945668211701554,6.744619091590284,3.647422673190695,3.9987214891876732,4.373706583488318
2,0,3.318352062940386,4.275614009708485,4.895089044442749,15.68363908429329,7.13049630792875,3.8599776534418777,4.343385364300772,4.014359642336911
2,0,3.3406441418608432,4.115854723916268,4.5450247737316545,14.595677272351747,6.85208543802959,4.033313301482156,4.441294932505525,4.298134436399174
2,0,3.3823399635248985,4.152028237847871,4.271672015859897,16.144331505473545,6.5088931810950985,4.057881900466902,4.425831656974285,4.294957021340117
2,0,3.391026496906983,4.343765543093072,4.191415761932936,14.941426889558288,6.559600449637289,4.17099231833916,4.158921652012209,4.577022425618115
2,1,3.597367404727548,4.60798303628868,3.6775869060749193,10.002774980515836,9.029836949325762,3.8706978045528677,3.638916220283581,3.979443290122915
2,1,3.5295440631829527,4.360589076880891,3.439938445090146,10.100711101146773,9.379120415874057,3.8323685702658232,3.736005676288036,4.193797597293302
2,1,3.581196770364651,4.343187215877653,3.233595542816146,9.422225869074254,9.507890338230125,3.295270003279236,3.9672880918049294,4.47645540391712
2,1,3.961271026332394,4.8267791210486,3.6945367864732295,10.638146605435667,10.279902161595961,3.4172554060001783,4.042061962914952,4.700082239870946
2,1,4.575204984110378,5.095480175356538,3.888862313427282,11.873922008644472,11.62936082514248,3.73953315846014,4.19819762915089,4.992975397414581
2,1,4.885137626725048,4.943337708682533,4.0528154275887,12.521023491364794,11.371168593915847,3.8003481857321098,4.419676383818957,5.057028081418754
2,1,5.276741650030198,5.535726882528822,4.330510654729084,13.50685978005011,11.851248867278738,3.6946065564344113,4.7368546793148285,5.167527789315961
2,1,5.00993413419027,5.207921868174013,4.214836883095605,11.216696919551207,10.83784679825811,3.6969235376291834,4.895967472496147,5.12449232899367
2,1,4.789306243815597,5.17298903782907,4.318925437471473,11.737067434221153,10.114241783697523,3.435530626164518,4.336312631260436,4.598022668437407
2,1,4.542167546573548,4.8847665853845,4.407094012106865,11.616567835299078,9.258657977017851,3.1103228082748555,4.123216745513629,4.518369043255169
2,1,4.128896299339262,4.218359712267932,4.392518782837451,11.694264104866948,9.47353755895731,2.7050049152665756,4.037634554848438,4.169619676868613
2,1,4.259636054873481,4.344758296897481,4.75033348850155,12.976513735050355,10.272160909670779,3.017412915954489,4.166291044143563,4.5348773859044185
2,1,4.62010601146728,4.465811221098819,4.602883872313706,12.87826855227067,10.364547088584962,3.122672408735895,4.3337578435148165,4.584216196268629
2,1,4.6160001040686724,4.406676868471427,4.854211176672268,12.10459811896772,10.210420956957552,3.0104537589818445,4.289350941119394,4.756872439556413
2,1,4.929268676725455,5.003108022835352,4.446384063663456,11.663616239536493,9.91732133644539,3.0440054085334314,4.463162294782151,5.084998124290094
2,1,4.319626053894829,4.585074236544188,4.385360704380644,11.570225073279254,9.406916990062996,3.305667171830342,3.9409875546663504,4.544458659813203
2,1,4.428105664713456,4.711341249474274,4.376229374831246,11.005153808946496,9.145045771691938,3.1440943066744595,3.867817904515753,4.58093641091959
2,1,4.327908446599557,4.865493341020004,4.417017429523737,11.793984692808532,9.516196467636856,2.5788126595686505,3.85964404587008,4.530974939886234
2,1,4.729165286520897,5.195098879346093,4.746558564167173,12.904531117880067,9.785985265957583,2.645191799273881,4.094644873527446,4.866787736308459
2,1,4.785128136780162,5.307845145378586,5.040591171273002,14.184254640538835,9.478398111460121,2.8528315946626686,4.122576686388653,4.979235180605917
2,1,5.076935063284774,5.994514727405683,5.133709248558502,13.715632357563686,10.071727799935145,3.0491530971572027,4.336196402571085,5.261359389828488
2,1,4.7756336837587146,5.35536461510089,4.870361654133241,14.450952405222836,10.364498552784154,2.9795561700079136,4.028948609361288,4.950261257052656
2,1,4.447875647643841,4.612851763801477,4.620449328233348,11.989806117680779,9.414418684465945,2.927465915140617,3.99316319352054,4.52497719699534
2,1,4.233451829019717,4.58234054394255,4.523299321025018,10.251175930964672,9.086610057646938,2.8179889609085227,3.4108326096440504,4.1006629155194645
2,1,3.9430617378561816,4.516238334607936,4.155832925392426,10.130538162769646,8.883498301889821,2.983573581365155,3.695162986115925,4.1979624494113175
2,1,3.4572516728413527,4.022990379323914,4.043773030860667,11.337999279041236,9.97232958054829,3.132120560098938,3.609092700347366,4.113136544693601
2,1,3.7939428629126084,4.455939015922568,4.490449274358218,10.412075762838057,8.37534716235781,2.990506643921645,3.9142810882290533,4.633513657566491
2,1,3.1277023159328197,3.7986692244206774,4.0419743659881675,9.94901751812622,7.243200400867743,3.0153716173845564,3.412374532514936,4.005893299696559
2,1,3.192810893829789,3.848492204134106,3.809415114296015,9.876910865079855,7.594462144245094,3.2500594788389168,3.1391716375013132,3.8446607767950014
2,1,3.432352840061606,3.4951298697373496,3.6013160243251474,10.714798988718858,7.671417609187929,3.0778595270013445,2.9026263409734394,3.3670836788209884
2,1,3.5325460020285986,3.432093786511141,3.869044365859138,10.846645258487172,8.303897243922144,3.2321628640775595,3.037338141668743,3.5815313123405765
2,1,3.6778373077033084,3.570053663392108,4.104235618364317,11.87862632046973,8.856583948534887,3.06733641931637,3.1196875226740066,3.671822729771064
2,1,3.6392536661383534,3.9314659808489116,4.657644892168985,12.456972043625408,9.113754792529187,3.5352263346095523,3.287435228428604,3.8142516245910483
2,1,4.088018724819738,4.218556687926369,4.715316729394778,12.753817457740439,9.671168973010143,3.562713998671508,3.6604420129322905,4.244116794906013
2,1,4.583238182273609,4.4797466555104295,4.556291612251158,12.125997278804782,9.903291549567323,3.578217039376672,3.642100509928615,4.311817626754041
2,1,3.8651241017369427,3.791997606815507,3.8952182400913533,12.036263201850778,10.282596894266693,3.5520170380146445,3.3025855612294985,4.160158075371945
2,1,3.540616519785768,3.9405904120375004,3.9796600047930584,13.077739221449095,9.749604751995307,3.59345838337131,3.355455021225197,4.067272074866899
2,1,3.674939367258149,4.1352900137901925,3.9268739758332267,12.106544326487688,10.0322823263484,3.7682694238276557,3.4251848494475716,4.26335718985013
2,1,2.8661674566950373,3.00630708130371,3.216288563937195,13.106494935659374,10.5663266379508,3.428304536136861,2.890370024055702,3.242871104427556
2,1,2.9531650432918353,2.915662011252991,3.220090836133916,13.780293014737975,9.942756528280285,3.6285933914694226,2.6836961378660944,3.252616126128062
2,1,3.129338523695676,2.9809661224779895,2.921049068618585,12.721766950678461,10.748234787468169,3.9828084216395894,2.9884013221198185,3.389419071319588
2,1,3.397654789782498,3.290971895884703,3.392247536390204,13.018860340794394,12.061018994633633,3.714095569487328,3.063720112070491,3.336473082394494
2,1,3.546776716817607,3.682047575736707,3.1296925385957484,10.588512214467038,14.31988471166453,4.123261412262696,3.0230754584703923,3.57812649675002
2,1,3.150212452861485,3.4544716917600775,3.283910274893879,10.734885334668592,14.071942649108276,4.149745368534184,2.9607333557211946,3.625560449325608
2,1,3.1852885164939932,3.6152000068097805,3.003440140933253,11.22150469944596,12.70154863356454,4.162980395606532,2.922016237443704,3.627788174045733
2,1,2.911960599356595,3.6851174852429036,3.52894677224665,12.12599094366872,14.340678630881273,4.851408092022252,2.887157419485799,3.406660411503315
2,1,3.3767672696961104,3.6325013799547405,3.408295329599954,12.911488248458356,14.91888296861286,5.491830806363415,3.2801443754758473,3.6482382631293753
2,1,3.12135962897592,3.8136259585251073,3.618396533589895,11.923416869986372,15.215820264997816,4.890711873794785,3.2611687518413635,3.3797659659523838
2,1,3.424726653962571,3.6840990111791863,3.9312782249893714,11.94455555640914,16.390282707925696,4.512061029689674,3.1094117086229787,3.423679878927744
2,1,3.43796857220333,4.00318224440649,4.098341689447869,11.801647727512096,12.73162132753745,4.302315373462243,3.4031329906200063,3.6353292844008624
2,1,3.119664748880548,3.6888184023807966,3.976073679356031,13.030154390946155,11.980994429499471,4.318207455750205,3.2881257366198193,3.4990597461627155
2,1,2.99328471893258,3.409657324740898,4.128812637348368,13.436742093036045,12.396801592885907,3.5688256882745715,3.067962743113912,3.5008100638879673
2,1,3.1671614403068062,3.6355211852285803,4.447469621964985,13.833591773658629,14.041911909473955,3.8788397525823077,3.191094557694824,3.6569597370212334
2,1,3.307977654305205,3.883194866164544,4.913379883123564,13.66202521486941,13.252895192025413,3.474611292361546,3.2514009140232907,4.005323241331322
2,1,3.5215807630235347,4.287387632753457,5.170540040274872,14.042493115416914,14.20187667398888,3.615815728667748,3.3654702159470475,4.067510630052025
2,1,3.742049238608052,4.397014798902882,5.322394752576248,14.186330107052465,15.142658321100521,3.1666788350221315,3.4310049792227106,4.500302642022806
2,1,4.107353951622959,4.474609060516322,5.1843975093908155,12.901813831011165,15.233533224230694,3.2955564089238933,3.8212010082152927,4.85076128550024
2,1,4.353663337153978,4.916916529944282,5.559198829193926,11.767739870498238,11.710921785153738,3.5801219115249485,3.9633859857072102,5.029070866028519
2,1,4.577158610879865,4.95880712609917,5.514142822496618,12.821515525989547,12.075045462425589,4.047363570748612,4.01326215425389,5.213117751319457
2,1,4.764070467992597,5.271571153387608,5.594276660627515,11.161960946113426,11.476397700231606,4.160723836639099,4.015236907770825,5.195310493995287
2,1,4.904536003592193,5.584187451521514,5.785954058226688,11.653138323994016,11.374323650425614,4.463567300567789,4.430583004953733,5.430616739130508
2,1,5.416651027649608,6.2696815010347136,6.318140529214648,10.553492552791031,12.516733955520037,4.268961673340053,4.738430835911827,5.750647475200244
2,1,4.58703938787139,5.44142405760235,5.586259925202652,11.328956036973038,12.064785403841633,4.075997037361809,4.290707491686824,5.10357518865454
2,1,4.857475512251536,5.664648227753746,5.7524611104305094,12.368819863121882,11.408919596888405,4.209348068145742,4.618703664266828,5.182316763991345
2,1,4.881965061002297,5.180780807327776,5.507960097549586,13.594187700405577,11.353655678756242,3.962646709808715,4.043355650196122,4.7555640432609945
2,1,4.620656338202721,4.823487892826925,5.162677193379472,12.938294578704065,10.687700266581821,4.286189987486739,4.216638432780435,4.9364982308627905
2,1,4.753617843815905,5.157567368595291,5.52849773456559,13.395110910652393,10.467184611885198,4.3217456127420695,4.570911102070006,5.206384692875055
2,1,4.21797477495514,4.565460543392692,5.062141194735639,12.158668008518912,9.09938859681929,3.467774928684561,4.198094478874325,4.60746898019232
2,1,4.137504155580057,4.247101882352079,4.093822566101919,10.299598664654937,9.863156446705801,3.7528531552094484,4.127141922968258,4.605434359634886
2,1,4.582912569952765,4.497672047267694,4.609561418046209,11.226439110617173,10.978680539016805,4.168509929212976,4.378322765931462,4.884389418226282
2,1,4.988186603465465,4.91665115642735,5.086258439090431,11.367081396384622,11.81433392756799,4.479303523504825,4.632311348148902,5.284781622088083
2,1,5.1707582819859566,4.628987712200184,4.528696666135222,10.888611285461879,10.130223143657338,4.068029309274633,4.327485642942918,5.377907199548285
2,1,4.931569709580409,4.175933191913649,3.9596585609969743,10.651085732045487,10.558394225998109,4.230413615808472,4.200242358194452,5.167916239845688
2,1,4.421394991719449,4.441413736505939,4.414185885469866,10.863752098164275,10.579602805483725,4.344944508890902,4.083632597954629,5.089653678634954
2,1,4.432240748072849,4.512369849310826,4.713431530394341,11.780130339418713,11.251745142243445,4.601208432316593,4.035849455404588,4.913562309337957
2,1,4.657899941477626,4.461235615602513,4.176020573392154,9.258539318531056,11.60647259049342,4.835597724354906,4.162743181274305,4.870142621799383
2,1,4.409284695210275,4.473390137136696,4.08930573484686,9.922638181678769,12.274933317999322,4.89720870338342,4.000039568942411,4.893363658713272
2,1,4.415895397905149,3.934704908619391,4.1406050493789435,10.003771314436014,12.443529685457676,4.89145174056681,4.047667832140132,4.758447835837022
2,1,4.130820138462443,4.080211642471083,4.1310193455891095,10.442815996981114,13.218938420997825,4.317697158502826,4.050547994080856,4.874021527352502
2,1,4.104033712218762,4.067974670032596,4.474791856041552,11.79834657528418,12.597090671155783,4.569106963334005,4.067539778869799,4.596928274148831
2,1,4.945537551915831,4.496664075143667,4.323405504765655,12.090337898185677,14.611187698339842,5.005122699105546,4.637383036809719,5.307883778293699
2,1,4.346593908239444,3.964215405459461,3.537664554370847,13.321008348631443,14.113782867056251,5.210287718163359,3.944909786144837,4.7057439684918165
2,1,4.308641623831498,3.9062190807992265,3.7923907642128127,10.563794006424295,15.502245114690467,5.123561674757895,4.033222322838231,4.889675832383079
2,1,4.2757562974388765,4.0366237080697855,3.8218233676315947,10.208453978709212,14.16435442399753,4.394403333777563,4.039569390636913,4.486213153516241
2,1,4.181876444386383,3.433094768247466,3.149939205838594,10.408910981189194,11.42715377663024,4.938302029354826,3.5015556113055744,3.9736970314401314
2,1,4.347629113964229,3.9389130809307646,3.7917976131694577,11.359019298443188,12.251258690312483,4.223866726855757,3.8516332027145,4.39298002068153
2,1,4.824396423275822,4.480906825860843,4.401531398589695,12.490672936590352,12.089919005060551,4.888540996783005,4.19861279088947,4.839643226866559
2,1,4.306681928052551,3.841808719775883,3.5464835874770326,10.618187855572636,11.950500935893556,4.780102162087177,3.635680805125771,4.096855771632887
2,1,4.213709709746163,3.6150394457033426,3.5604399686159223,11.002535447737737,12.427011432443173,4.8138544365918,3.715761869270226,3.9499526207117177
2,1,4.469220015814827,3.6053498727549447,3.6240968935638147,11.331811160440864,12.456458976756293,4.664554039518525,3.5106876096733726,3.844925353403503
2,1,4.437543019100199,3.8426546629395344,4.062584461142472,12.150344711574157,12.669943352571416,4.500910754940106,3.569077116942429,4.160272352549197
2,1,4.42118054746371,3.9075882304286074,3.8243565442724567,11.597870299558968,12.47728331613344,4.2996974879103265,3.670253494556188,4.335856230124089
2,1,4.948450617260443,4.233505457025949,4.19560166562055,12.05678780537427,11.310790369531398,4.88501296832374,4.017393151358521,4.8062710771850305
2,1,4.8048854090674915,3.879339228462593,3.6734225637354183,13.017376085176888,12.368124542970206,4.800331173760595,3.7776598642572545,4.429962884942645
2,1,5.026669593142698,4.229286082255421,4.155105831933729,13.885133670263636,12.887475296558822,4.801369216139335,3.810416913535138,4.57980589543116
2,1,4.88019376722198,4.236452728887457,3.9673793829862203,14.01512981695371,13.144095922318071,5.376811961437456,3.797688809676051,4.474686300445356
2,1,4.810422242755022,3.9893226856081228,3.6353828703215236,12.500136005931608,12.04099451151481,5.167369290836969,3.5591272097278965,4.197125015459092
2,1,4.366865451536202,3.7867899483926317,3.9410419380416126,11.922759693432797,11.593525760402564,4.0245242876525635,2.970661592634815,4.074001542621806
2,1,4.08142475640735,3.6570196169806017,3.5378112109281825,10.710616546372302,10.173961430351167,3.723726089852761,2.9372070444730745,4.1143319155996725
2,1,4.333281884334702,3.6159439629661785,3.5129214499828967,11.357761996569897,10.276949540031742,3.8653034578007635,3.1816238972438424,4.25026708743349
2,1,4.735431458080787,4.420836508978202,3.9235716513365944,13.483984704853176,11.530790673631754,3.7120985463360943,3.4505039361155325,4.530247196587125
2,1,4.646247647629071,4.31454735809379,3.9657932645519507,14.525442503002774,10.45023268084066,4.068902600291867,2.957675738694405,3.9743940604736117
2,1,4.879457922351992,4.491147210184507,4.123755361588591,13.775679791260606,10.426779373274158,4.610905202023563,3.1052681171113856,4.4288740417952885
2,1,5.443128773865405,4.769241105898018,4.0217583944885105,13.36391367004858,11.635514944934952,5.022159996583738,3.4732989409902455,4.880524676439507
2,1,5.2988683639761796,4.618289634128637,4.1689457370319625,13.469054836559167,11.196053805639625,4.940658091341155,3.523316451041334,5.696685690081253
2,1,4.831792759372621,4.098158066492352,3.5835709271647165,10.768739201715222,9.511686521109395,4.1109381921746415,2.9140959173948877,4.846513820420599
2,1,4.726196590257373,4.234988028654545,3.6783470475338156,10.888829657944791,8.89491024286512,4.4041560292404,2.743192692033619,4.496520224517998
2,1,4.269661345558608,3.705491875187746,3.776412053825332,11.270013285176377,10.048896656371612,3.578659107156958,2.5628815903479163,4.048402005996802
2,1,3.904947114954164,3.830323559037171,3.180079462398762,10.50708835467534,10.037389582615635,3.9416496308459754,2.7703820790739018,3.686209759759246
2,1,4.146294975929255,3.9682419285989337,3.0337172510522183,10.419123121472518,10.267076980286461,4.303694141525854,2.9806943337217606,3.6957047592685
2,1,4.192001282249317,4.11838738857375,3.2370665533644267,11.358123977536838,9.880091246260038,4.553398729098649,3.267766499397468,4.018237079908663
2,1,4.361586572279616,4.287346758470123,3.3073585630098083,12.205234309385238,10.609742396913783,4.7240027762254,3.1822831328699146,4.178488173085202
2,1,4.687122981070722,4.185110698617186,3.507067391035503,12.721923902460205,10.312920474480464,5.010670398040791,3.517545663270223,4.231344469374062
2,1,4.612271124903505,4.580865249978315,3.8751258306840874,13.729047649212713,10.50835922914321,4.650723709312501,3.554915630768338,4.398096725086085
2,1,4.541807488206056,4.723340669080632,3.5953480104689466,14.196556342300676,10.426267119182917,5.213001679865725,3.837976978655405,4.654032461547267
2,1,3.973873699394494,4.37267028274181,2.9165667369960597,12.827249611569423,8.938841698409156,4.9658147547930085,3.4627498482687398,4.09524803840833
2,1,3.978255402909034,4.151876159234732,2.93200620350426,10.635652906294336,8.597166480231676,4.187098391055869,3.302250930618701,4.18077617786396
2,1,3.951311544929254,4.361872871291566,3.0227636901991763,11.170676992271874,9.485488193978604,4.21975623626969,3.504145169428343,4.026459286304563
2,1,4.493651323471784,4.78138499325388,3.169664918601609,12.060261597026075,9.926730987672645,4.1155745742628564,3.7054848500551194,4.409828448489069
2,1,3.806345936774998,3.834933017150383,2.4659538303057866,10.936356542982018,9.593461695137032,4.3056279777859,3.6994720264343934,4.455088687887097
2,1,4.36084843824069,3.768700082458355,2.5589057654966103,12.046958050882441,8.497851625401772,4.6148613849992985,3.794647145403713,4.648375427761007
2,1,4.164298795630957,3.8810204490560856,2.7971670256917647,12.807840924313686,8.982049611417743,4.059325753900598,4.056006578813934,4.43531840531672
2,1,3.7078559787584577,3.3234360290227722,2.734811039141879,11.460852539748442,8.93059697984921,4.280432050112365,3.722918404743712,3.5146837396461086
2,1,3.7671653502325153,3.4950083671947074,3.0258003507929434,11.549960432628987,8.548036646779915,3.6628636119670706,3.570524064585744,3.6866189877414564
2,1,3.800812862917674,3.96294617061945,3.059478772047,10.81323984254915,9.214415384110522,4.334989353597023,3.4177107056810865,3.823066667941807
2,1,4.02519874304697,4.071920307346072,3.2052734360043686,9.976920927171243,9.906401742514374,4.559336049966743,3.556154205932124,4.012266268413687
2,1,4.1413995615395285,4.452349762109717,3.1198035734783667,9.915502242855878,10.562501635760327,4.8217772906908705,3.729310017783262,4.405478262828508
2,1,4.0597761356018705,4.497623742371767,3.508034389131049,10.641432785397285,10.782616041524573,4.6296103102006745,3.620164599040336,4.054528168566658
2,1,3.8769833458766407,4.150074294010958,3.487916615982486,11.556401945167595,10.551197604227555,4.381134293052189,3.563648098434423,3.5293163403694634
2,1,3.968885727462481,4.3627472835110845,3.478753445257668,11.154126478214254,11.713260562809992,4.210945335227812,3.558943916499038,3.500237099618571
2,1,3.943670928853848,4.533388234223543,3.7385968144688193,11.694777164396891,11.295013563264225,4.09519904213131,3.863382767310161,3.939419379690991
2,1,3.5823005727403108,3.906650255243319,3.603026834611353,10.045893297798425,9.06184911745124,4.376552413174046,3.2343951764811636,3.155812299643059
2,1,3.93644140457992,3.71320826494066,3.5124224009191196,11.126112674214173,9.912883876873108,4.736105312952165,3.3910401552864937,3.3535925604530066
2,1,3.5421794289575343,3.506062899314612,3.8679397394419777,12.435141412904919,10.663514800314127,4.27887179716482,3.153047854208314,3.0820259455379118
2,2,2.37051293087665,3.5251340619926665,3.609498290227796,8.964987519695516,5.418069280354082,4.106665784474225,2.2039954625912324,2.61657058547372
2,2,2.468689593937918,3.589789651616737,3.5818947300435724,9.918949830740575,4.998940880435571,3.4220500786092702,2.207924916166107,2.6606945068451195
2,2,2.2893566706333477,3.185662451120472,3.1658068638124908,8.764172745317245,5.1902803194136276,3.416394540752921,2.345161001688154,2.6685366510197057
2,2,2.4769243494373265,3.1544058001970705,3.269067465433964,9.262216668284477,5.53770995614642,3.521108205281139,2.0711722168675033,2.4411974275438615
2,2,2.717039225854474,3.1311823481758907,3.1627638630871555,8.883837806154887,5.643943540462925,3.221622677627457,2.144738856739832,2.5574202946127182
2,2,2.6892094618241207,3.2770171318051844,3.540874424947134,8.921223258183977,6.077625929343521,3.018267000251899,2.2075477422534564,2.759596445983672
2,2,2.601949941174394,2.948621321378138,3.0977015994374195,7.413933325202812,5.452351441291672,3.110118393626806,2.366604461318795,2.6150095891420886
2,2,2.6647650956501856,3.2772057400443284,3.357874851738072,7.234724313693946,5.020286243019606,3.331631069680388,2.5037018242289566,2.7997480374340515
2,2,2.919477030581707,3.412342388328915,3.1764097073651083,6.91841743658234,5.349740637326886,3.2095255587193288,2.64390248595093,2.8072442226508274
2,2,3.025568406359686,3.5344381215905103,3.403284554473342,7.325203769440976,5.805087574449983,3.0686175861173264,2.4004157971407905,3.00445663449792
2,2,2.935605475715868,3.558054407315933,3.5587335725540896,7.432232871309268,5.827424481993577,2.9546070978621994,2.499090238270142,2.895550558941889
2,2,2.904732198038443,3.790542788872737,3.493434206853811,7.7596212429017575,5.438672201788532,2.9491986526618486,2.4078594594826437,2.7562710587038532
2,2,3.0091149557246157,3.7423670705066145,3.6968594776183026,8.265824402403545,5.503915032460801,3.155491892031284,2.486037019498165,2.926618565057218
2,2,3.130763875673312,3.9254014597312947,3.774645729805973,8.198900179934705,5.890995383697558,3.220185189021174,2.5626770235877814,3.1445469381218674
2,2,2.9950362342759536,3.74955584173933,3.527831802228046,8.265847869914245,5.289610651188001,3.0589220615230843,2.513531836573888,2.977927564745888
2,2,3.2943503042886118,3.751157024827132,3.4623154349584286,8.236467153786998,5.75757028664432,2.7941049133745253,2.7380709216886747,2.971894234869759
2,2,3.464266938406941,3.833321243470237,3.62171000409739,8.713535299725525,6.319845916116578,3.0588832893259563,2.873934459029048,3.1649520739902517
2,2,3.462809793935905,3.6455582798484794,3.603491237755031,8.903754071644325,5.7945088934237035,3.195106780083471,2.8663421533752533,3.2061255142948366
2,2,3.2255022449301665,3.7704160359059684,3.9998394194231888,8.402469590813311,5.227796959802232,2.227438307466666,2.831976983417737,3.5448247529306425
2,2,3.313120755687575,3.8572385769824393,3.941743202560563,8.791828576750552,5.177828297698023,2.3647900334740233,2.4792371939550213,3.2123968975904
2,2,3.354266928002789,4.048157421168179,3.87182489983781,9.150544163992688,5.21200789529692,2.575253487860661,2.7163608855406367,3.1056981395511456
2,2,3.446693336006113,3.7910974721906268,3.7857453474681217,8.682854345505888,5.942446401912661,2.691057260505168,2.6940454678463825,3.046704512634826
2,2,3.196619487570639,3.457898085713758,3.6238847350764716,8.258933077121712,6.40934727050433,2.6379882139123274,2.641243660034635,2.9709792296006765
2,2,3.5430325340364845,3.4161689853468364,3.740983856421427,9.02324021467316,6.3595773800285125,2.8220032878173136,2.7580054277796253,3.1155920112401163
2,2,3.5727881751115818,3.257907036488774,3.609578687474981,9.216761069800382,6.277829167645792,2.8852293541395553,2.90931754967598,3.106361085171167
2,2,3.2151032425473747,3.0004748173199802,3.3402515158628403,8.142929308160541,5.645423454739226,3.1322102624927197,2.7590296770760454,2.8682187571383277
2,2,3.3302453039995417,3.074530552563437,3.163906185746376,8.033282279974706,5.7213877617315845,3.1001103296361707,2.859813654497358,3.0889121450436923
2,2,3.144796805640618,2.9097931629395872,3.1382651871111142,8.53105905157389,5.43493710414835,2.980063701242507,2.4811864886720336,3.1380825828664065
2,2,3.1577768646636106,3.106620333872808,3.046170792942674,8.356139320630273,5.072699504984058,3.0076758156109022,2.404903019026794,3.0338479914562817
2,2,3.2801326602046914,3.1195603311510616,2.9705963328213065,8.358949711214722,5.080778045710946,2.4949731163144713,2.660607117461543,3.338649039537526
2,2,2.9888961801179836,2.87567315634367,2.8066288635078807,8.200856250596994,4.9559338729169005,2.6929834363943557,2.2800716738478712,2.984026620674584
2,2,3.2540249759661584,3.0036041367215356,2.6793121781387836,9.11690726711682,5.471737467378315,2.7076322432508424,2.504503221788916,3.2243942111207935
2,2,3.017761863902255,2.965689708732924,2.595849470056875,9.240987118051377,5.6890257846586465,2.4565256701854334,2.663731711417602,3.136831834189882
2,2,3.318099728723657,2.7480198527487745,2.2513123182587784,9.607068245679574,5.879479410700429,2.619264368974074,2.390128488442289,3.08146770409997
2,2,3.293073544385378,3.0143212246538056,2.343456574523745,10.637306632679271,6.549313036879802,2.7888977724307384,2.22927498232371,2.7862448796695816
2,2,3.2209774621330145,2.9839394981746246,2.4805789347912643,10.08183933311508,6.165978176104347,2.584577809928002,2.3221658652829515,3.016025870931133
2,2,3.083412450149184,2.753387609168378,2.5972608407163222,10.264944800572204,6.065616039677539,2.6252532146039766,2.4011864087998256,2.779329395051787
2,2,2.9784305316153095,2.866670669185118,2.7662686685153117,9.862666514621335,6.034945919013993,2.7625563592078315,2.266204540667174,2.936758330047582
2,2,3.1724931417565627,3.0497671058479034,3.164294331128602,9.415308918487838,7.088534539546846,3.1443000928990408,2.416642642581532,3.2950543004507598
2,2,2.719074123632548,3.0846871313746704,2.991964614457997,10.362626099969823,6.407295300753429,2.7156070791279263,2.5713353023602674,3.0357547006539445
2,2,2.847215943311488,3.4575479824136064,3.068369244953031,11.81619871231244,6.55566676665864,3.010716770080809,2.4841796100510516,3.290265424473944
2,2,2.9383088997269473,3.3303234334988505,3.217446898954025,10.993049764255703,6.920565624256611,3.044800164566413,2.494799590606608,3.380893073025927
2,2,2.692565408487002,3.4952173538285423,3.2580490558258566,11.29397761350312,6.908670529726825,2.6961505349438175,2.4745144766218052,3.193270799211732
2,2,2.8027068892827303,3.2610028614846387,3.2553081056358297,10.297987999533243,7.335521054567864,2.842349385031627,2.441797289188705,3.5737779524829896
