timestamp,C1,C2,C3,C4,C5,C6,C7,C8,
107626167608,-6,-24,-111,-67,-98,-36,-13,-10,
107626167608,7,41,9,-110,-118,-74,-5,5,
107626182682,-6,77,96,98,81,73,-2,-6,
107626182682,-14,2,85,100,-2,-8,3,-4,
107626189956,-20,-51,-70,-69,-47,43,-16,-23,
107626189956,14,-54,-128,99,-2,-32,8,9,
107626212414,-5,3,-128,-128,-46,8,-2,-7,
107626212414,24,45,92,96,48,-77,-14,12,
107626221632,-26,-22,11,-50,-34,34,-5,-6,
107626221632,6,-50,85,102,19,16,-2,0,
107626227512,14,-1,-17,52,-117,-4,18,8,
107626227512,-20,53,-122,-62,14,76,8,-15,
107626235153,12,-2,-78,-71,56,-101,-12,5,
107626235153,-4,-25,34,-11,-50,-29,-3,-1,
107626242430,16,95,115,127,34,20,20,14,
107626242430,0,-70,-59,-42,-52,-49,-11,-3,
107626274374,1,-25,27,85,100,-28,0,3,
107626274374,-10,-15,90,-128,-125,-26,-14,-15,
107626294990,23,28,-61,122,91,8,21,20,
107626294990,-10,-38,127,-77,-33,78,0,-9,
107626317483,-5,-37,-128,53,87,-31,-7,-6,
107626317483,18,5,38,-52,-103,-35,6,15,
107626324835,-4,23,-74,-62,7,-77,-9,3,
107626324835,17,-34,90,100,-83,46,-2,11,
107626332468,-17,-3,115,-74,0,11,7,-2,
107626332468,11,80,-87,18,-30,2,8,3,
107626350399,7,-23,-44,27,-93,-17,3,1,
107626350399,0,-62,-49,125,65,18,9,0,
107626377452,6,12,-57,-1,65,-5,1,4,
107626377452,23,-46,-104,22,-75,-66,-4,9,
107626384964,-11,-25,-63,-95,0,-30,4,0,
107626384964,-15,80,109,-72,-18,73,3,-8,
107626392489,-22,-52,-84,-34,63,-54,-29,-17,
107626392489,16,-29,-19,-11,-72,-18,7,11,
107626414849,-8,8,127,116,75,98,9,-7,
107626414849,-27,-107,-84,78,91,0,-21,-23,
107626429845,31,-26,-72,-114,-128,-96,6,16,
107626429845,-6,112,-121,108,42,-9,0,-8,
107626438869,24,-36,-73,-79,17,-12,11,12,
107626438869,3,2,-125,-128,-19,6,-2,-4,
107626452551,8,30,62,118,48,-19,-1,3,
107626452551,-32,-27,8,-108,-15,71,-4,-17,
107626467591,4,-6,43,-34,10,-40,1,7,
107626467591,16,-19,102,-110,-60,-3,4,10,
107626489915,-36,-2,-36,88,40,-19,-36,-31,
107626489915,-9,-69,-128,-80,-18,-49,0,-6,
107626497441,-22,19,-81,-85,-128,-28,-8,-13,
107626497441,12,68,112,-40,-25,-65,12,11,
107626535210,33,-21,127,122,93,-84,-6,16,
107626535210,-32,-66,-76,-88,-32,-43,-23,-21,
107626542586,22,30,58,-110,-128,13,7,8,
107626542586,4,84,114,12,127,53,-7,2,
107626549824,-9,-85,-78,-96,-128,38,11,-7,
107626549824,9,55,-53,-21,-20,25,2,0,
107626557365,7,-17,72,61,-128,-81,-5,1,
107626557365,-23,45,-60,127,125,15,-6,-15,
107626572677,-4,35,127,-86,-125,58,3,2,
107626572677,1,-50,-64,127,65,25,5,10,
107626596304,20,-90,-51,-64,-126,-5,20,17,
107626596304,-7,66,-37,-18,20,0,-1,-6,
107626624860,-14,-61,111,-41,-8,-49,-23,-8,
107626624860,9,-38,-14,47,87,10,4,5,
107626632285,-1,21,-92,-109,-37,49,8,-2,
107626632285,-1,20,95,82,103,-89,-18,0,
107626640127,-11,-6,-128,-100,-63,86,12,-4,
107626640127,-5,2,-31,13,16,-1,-2,-5,
107626654901,-31,36,118,-88,-63,-17,-10,-18,
107626654901,1,8,-119,40,-39,-54,-2,3,
107626685026,31,32,83,-55,29,-53,-4,11,
107626685026,-32,15,123,93,-115,-12,-9,-17,
107626707289,7,62,127,-21,-105,35,7,5,
107626707289,-5,-68,-41,-53,120,79,6,-6,
107626715089,14,0,64,96,-116,-67,7,10,
107626715089,-2,-23,-54,-128,-106,23,5,-3,
107626744852,12,-46,82,127,-44,-73,-13,7,
107626744852,-2,26,74,54,-62,57,9,-1,
107626752532,-12,-21,-101,-68,94,-19,9,1,
107626752532,9,44,-102,77,-22,-6,-3,3,
107626759875,27,7,89,-128,-14,-60,1,14,
107626759875,4,-74,-59,65,38,1,-3,-2,
107626767379,-2,69,61,41,-95,-9,-1,0,
107626767379,-3,-45,-126,-56,22,-8,8,2,
107626789896,11,8,-120,-115,-128,17,10,8,
107626789896,-3,12,105,-4,72,-35,-9,-6,
107626797415,-9,13,109,-41,33,-59,-20,-11,
107626797415,-7,-27,-128,58,53,11,-6,-2,
107626819763,-4,-119,-128,7,-56,41,13,3,
107626819763,3,32,-36,-56,-5,-38,-1,1,
107626827388,4,93,-59,18,27,26,-4,-4,
107626827388,2,1,-37,56,-24,9,9,1,
107626872610,3,63,-128,-50,127,24,12,-1,
107626872610,0,93,77,-59,-108,2,-10,-4,
107626887304,-9,-107,-58,71,37,-8,5,3,
107626887304,28,14,72,-61,81,123,32,21,
107626894837,-27,-80,109,71,-29,-65,-33,-22,
107626894837,-22,14,-106,-104,13,-22,-16,-17,
107626902273,9,36,90,58,-128,-1,6,13,
107626902273,-15,-98,-84,-102,60,-82,-15,-15,
107626932508,-28,-78,9,48,-3,68,-5,-16,
107626932508,20,-16,-1,72,-20,-17,15,14,
107626947317,3,27,63,127,8,19,-8,-6,
107626947317,18,-72,92,6,-82,32,23,22,
107626962275,20,127,72,74,66,30,11,15,
107626962275,-7,-128,-110,-3,-60,-17,-4,-6,
107627014707,-11,-71,91,92,103,-25,-10,-2,
107627014707,-8,-66,-17,-60,22,-66,-21,-9,
107627037270,5,59,16,-56,-113,-35,4,-3,
107627037270,-6,48,-65,-59,115,77,2,-1,
107627052331,22,-51,-66,-40,-68,40,13,12,
107627052331,-8,-94,-74,-79,-108,-33,1,-5,
107627097290,-23,47,-128,4,9,-38,-10,-13,
107627097290,-7,53,127,-17,14,-17,-6,1,
107627105062,13,59,119,76,-128,-28,6,8,
107627105062,-10,46,24,-100,111,54,-1,-8,
107627119745,-16,-98,-77,-58,-93,-34,-19,-13,
107627119745,19,71,102,56,-90,-23,8,10,
107627135076,15,12,10,-66,-76,9,4,10,
107627135076,-24,9,-92,-4,84,14,-19,-19,
107627164745,-34,9,57,-119,-82,-55,-33,-27,
107627164745,14,-27,-106,46,-1,22,26,18,
107627172568,-23,6,-121,-128,68,67,9,-12,
107627172568,12,93,-39,19,-65,69,15,11,
107627202276,6,-101,86,96,73,-21,-5,5,
107627202276,-19,-12,-128,-128,26,-5,-13,-10,
107627225013,-17,8,-53,-2,95,6,-7,-7,
107627225013,-4,-35,15,30,30,24,-3,-7,
107627232337,-3,40,-28,-69,-120,-62,-21,-9,
107627232337,5,-35,39,-37,-102,-69,4,11,
107627262342,-7,51,-62,-40,-41,78,13,-5,
107627262342,-3,-69,-91,-128,-65,-77,-18,-6,
107627277316,-2,26,51,-4,11,-30,-4,1,
107627277316,-6,-75,-30,-29,13,-15,-1,-7,
107627292432,21,32,-27,-116,-128,-70,0,8,
107627292432,-2,99,22,127,127,118,9,0,
107627322375,-8,-86,-108,-127,-111,-63,-14,-9,
107627322375,-14,20,10,108,-33,105,12,-4,
107627329761,-22,-2,-62,-36,119,52,2,-17,
107627329761,68,-112,104,127,64,-58,16,40,
107627344857,2,101,51,-104,-46,31,9,5,
107627344857,-35,-117,-35,-59,70,36,-25,-29,
107627390029,4,-1,39,109,-34,10,3,-1,
107627390029,3,-83,-39,-66,90,-11,4,7,
107627397330,-13,-19,67,32,-31,-35,-8,-4,
107627397330,13,-18,-33,46,-2,88,18,8,
107627404755,-2,-58,-40,-98,-62,-80,-4,-2,
107627404755,6,127,127,-41,81,-17,-2,-1,
107627427296,0,4,127,23,-16,-10,-6,1,
107627427296,16,-48,-17,35,-104,17,-5,5,
107627442361,-2,98,7,-115,52,127,20,1,
107627442361,-19,-58,-119,91,127,52,-15,-18,
107627457299,26,56,127,123,-128,-69,-2,16,
107627457299,-32,-41,-120,-128,80,-33,-5,-12,
107627487572,15,23,55,68,5,-83,-5,5,
107627487572,-12,20,124,55,-70,35,2,1,
107627494760,-5,18,95,123,38,-2,-18,-11,
107627494760,1,26,18,117,-5,67,14,6,
107627517256,-13,-24,-114,39,115,63,11,-4,
107627517256,-4,58,21,-74,-85,-28,-3,-7,
107627540127,-28,-11,-15,5,-99,60,1,-13,
107627540127,16,-47,-7,-72,-63,-97,-16,4,
107627547381,1,16,-76,-128,-113,-5,5,-3,
107627547381,5,10,-57,-48,-128,-79,-19,-7,
107627570086,23,-57,61,-128,-103,-70,21,15,
107627570086,-30,-69,-128,36,112,112,9,-16,
107627614756,15,67,-46,4,71,-60,-5,12,
107627614756,12,-9,127,127,-99,-44,4,7,
107627622462,-39,-70,-128,-128,33,45,-10,-36,
107627622462,14,69,31,-21,21,13,-8,4,
107627659771,4,9,75,83,127,52,-2,-4,
107627659771,-17,87,21,88,88,-22,-5,-3,
107627667513,23,-56,-128,-9,98,68,13,9,
107627667513,-16,37,-14,-118,61,18,-7,-15,
107627712230,7,-31,-31,-12,-128,-96,-10,3,
107627712230,-6,-13,-23,-114,19,25,-8,-5,
107627735129,-17,2,-92,7,-116,47,19,-5,
107627735129,3,-121,-113,93,71,43,-12,-11,
107627757339,21,-4,102,-13,-25,19,16,22,
107627757339,-24,20,-128,-75,27,-70,-21,-20,
107627764971,-10,105,-35,-51,50,72,17,2,
107627764971,-6,-8,107,-36,-74,-128,-26,-9,
107627772282,23,-49,-81,72,-44,38,11,10,
107627772282,-5,-31,17,-27,6,10,-9,-10,
107627779766,1,22,24,-7,-36,38,4,-2,
107627779766,7,89,108,127,57,20,0,9,
107627787338,15,-6,109,-48,112,-39,-23,-3,
107627787338,14,-11,107,104,-128,-3,19,18,
107627824793,15,-88,-94,-82,46,-11,18,15,
107627824793,18,35,12,6,64,38,6,8,
107627832510,-15,26,-36,46,-79,3,3,-3,
107627832510,-11,94,63,5,-44,-1,-15,-12,
107627840069,10,-65,-12,8,85,-4,8,10,
107627840069,1,-14,-124,-96,-128,10,8,1,
107627847373,22,-25,127,118,127,6,-17,5,
107627847373,-37,-46,-128,-113,-85,123,11,-18,
107627884774,11,9,31,-15,-70,26,-2,0,
107627884774,-13,70,-37,-79,51,-39,-2,-2,
107627892517,-20,-51,31,48,59,42,-9,-15,
107627892517,6,37,40,81,-7,23,17,12,
107627900078,-28,-32,-128,-120,-74,-72,-12,-23,
107627900078,20,-26,88,-119,-41,-53,-29,2,
107627922483,4,-60,-121,81,82,95,20,10,
107627922483,4,71,-53,-100,-72,-48,0,1,
107627929846,9,12,62,112,127,-71,-22,-2,
107627929846,-5,-53,-128,-87,18,-21,8,1,
107627945077,-17,-31,-6,72,-79,20,-3,-15,
107627945077,1,-52,8,44,38,-37,-8,-4,
107627952469,-3,-17,-60,-49,41,1,-10,-4,
107627952469,22,33,-52,66,74,34,26,19,
107627959974,-13,127,92,87,37,52,-10,-10,
107627959974,-8,-73,-37,57,-106,-62,0,0,
107627982386,-16,-35,-60,-75,-53,39,-5,-5,
107627982386,-1,67,-90,121,34,72,18,0,
107627989923,-34,-12,-117,-128,-38,-42,-24,-26,
107627989923,-1,8,115,112,83,-8,1,4,
107628004918,1,-87,-79,-96,57,11,-1,3,
107628004918,12,86,127,72,-112,-16,5,7,
107628012262,-19,3,-61,82,2,57,-2,-11,
107628012262,-6,-94,-35,-79,28,5,-8,-7,
107628035019,12,-27,39,0,-82,-37,1,7,
107628035019,23,-55,-64,20,84,-37,14,17,
107628042353,9,83,-128,-2,-93,72,24,2,
107628042353,-7,-13,109,-128,21,-67,-14,-5,
107628050026,13,-61,107,92,-59,54,11,13,
107628050026,-10,-7,-78,-7,-7,-3,4,-6,
107628072298,25,24,127,-69,109,12,9,22,
107628072298,-32,-9,-40,82,-74,32,-11,-26,
107628087282,4,-22,-12,3,107,10,3,-2,
107628087282,9,59,-9,-27,-128,-35,7,11,
107628095005,-8,56,-92,-32,127,1,10,-2,
107628095005,-1,-8,22,90,53,54,6,-1,
107628102373,-6,-48,98,-113,-48,-54,-15,-5,
107628102373,-22,-4,-95,7,-73,2,-5,-13,
107628117503,7,-54,-117,-12,-84,-8,10,0,
107628117503,20,-17,105,-24,127,-9,-10,7,
107628147348,-15,8,-54,127,-47,29,0,-6,
107628147348,6,21,122,-128,-128,-15,-3,1,
107628154874,-13,-128,23,127,-59,-33,-9,-4,
107628154874,18,-1,69,-110,48,-8,11,18,
107628162262,-16,85,-85,59,-6,52,-1,-12,
107628162262,19,10,-114,44,-12,11,9,6,
107628169925,2,-86,48,-66,-46,-16,-7,-1,
107628169925,14,45,53,127,127,22,14,14,
107628177261,-37,-26,-2,-128,-82,-42,-12,-21,
107628177261,36,-7,105,-19,-76,-60,4,25,
107628207204,-36,-19,-128,70,46,98,-7,-29,
107628207204,14,-102,-117,-58,-89,-46,-14,-1,
107628214978,0,-61,-53,-33,-89,-25,5,2,
107628214978,-4,13,-36,-37,-42,5,-16,-3,
107628222337,11,-10,54,111,127,-30,5,9,
107628222337,6,40,5,-128,-128,43,20,9,
107628229821,-11,17,-1,-74,127,25,0,-9,
107628229821,10,18,39,45,-69,-26,-13,-2,
107628237545,-5,-27,-109,24,99,39,10,8,
107628237545,-21,-4,116,-87,-128,-128,-12,-9,
107628267509,-18,36,82,-17,59,-52,-14,-10,
107628267509,3,57,-51,-45,-55,-32,7,4,
107628275078,-9,-25,105,122,29,-19,-8,-5,
107628275078,5,-42,-98,-124,-77,-6,-8,-5,
107628282290,-8,74,59,94,23,33,11,0,
107628282290,-8,-85,127,26,-105,31,-5,0,
107628290033,3,-64,-128,-128,-98,39,10,1,
107628290033,25,10,81,52,-126,-128,-23,3,
107628327532,12,54,-45,-111,-128,-48,1,3,
107628327532,3,32,74,-18,10,-70,-26,-9,
107628335061,1,-7,117,37,7,-38,-1,6,
107628335061,-18,-9,-80,-4,127,127,22,-5,
107628349745,28,-126,35,-58,-109,-64,-13,9,
107628349745,-42,2,21,-128,-40,-59,-17,-24,
107628372473,-11,-7,99,73,64,-7,-16,-13,
107628372473,8,-5,-102,-55,-47,-1,6,7,
107628379792,-7,27,88,65,-49,112,7,-6,
107628379792,4,-72,-48,-73,-37,4,15,6,
107628402279,11,-6,108,3,-28,-41,8,12,
107628402279,19,-32,-29,-4,55,24,10,19,
107628409709,-3,-5,-22,108,27,29,20,4,
107628409709,9,-100,-15,-83,-7,-42,-20,-1,
107628424808,2,119,90,49,9,23,16,3,
107628424808,-52,-16,7,7,-43,-15,-28,-40,
107628432367,17,1,-101,-24,-106,-11,12,14,
107628432367,19,19,127,127,127,127,31,12,
107628477268,-8,21,50,-122,-54,-35,-22,-9,
107628477268,15,43,69,85,-6,8,3,9,
107628485038,-35,-76,-57,-46,1,36,3,-20,
107628485038,-11,10,-53,-106,-128,-90,-7,-8,
107628492524,28,32,127,127,127,-12,-6,17,
107628492524,-44,-81,-127,-96,-128,47,-14,-37,
107628499821,51,86,127,91,-10,-25,15,33,
107628499821,-24,-36,-94,-103,-121,4,-16,-20,
107628514748,-4,-4,5,-115,23,-59,-7,-5,
107628514748,-10,70,127,88,-66,28,9,0,
107628544835,2,-22,-127,-2,80,44,7,0,
107628544835,11,-104,-34,77,-15,34,0,4,
107628552314,7,-29,38,-108,-8,-32,6,5,
107628552314,-5,40,-128,-27,23,19,5,-4,
107628559849,12,-14,10,-25,-128,-12,2,6,
107628559849,15,-12,32,64,87,-26,5,13,
107628597514,-21,53,-2,-94,19,-34,-17,-19,
107628597514,17,61,127,127,-99,-35,1,9,
107628604789,41,43,-1,127,-128,-66,16,23,
107628604789,-47,23,-67,-59,104,32,-7,-28,
107628612297,18,-98,-10,98,-100,-25,-22,0,
107628612297,9,97,58,7,-12,-39,38,24,
107628620008,-31,-64,60,-82,-67,13,-19,-20,
107628620008,32,-35,-7,14,-128,-44,12,18,
107628642545,3,-45,-128,-13,87,53,-11,-6,
107628642545,12,31,-51,-64,-113,14,-4,0,
107628657253,-13,-9,-108,90,-34,18,10,-3,
107628657253,12,64,90,-128,-110,-4,9,7,
107628664853,-10,-6,-110,72,76,-28,-9,-6,
107628664853,-19,12,88,115,-36,8,-12,-15,
107628679835,1,-36,-48,-121,-54,60,14,8,
107628679835,7,-12,2,-89,75,8,-4,-3,
107628702305,4,-14,-62,74,-84,-30,0,0,
107628702305,0,-53,-36,-27,110,17,0,-3,
107628709713,-8,67,0,-113,65,24,2,-8,
107628709713,4,66,-90,91,-41,-23,-2,9,
107628755006,-14,-27,121,109,53,56,6,-4,
107628755006,4,-21,-80,-39,-128,6,-7,-3,
107628762275,15,8,80,55,67,22,18,14,
107628762275,-35,-28,82,-45,-121,-48,-28,-27,
107628785040,34,-55,-80,-60,-46,2,23,28,
107628785040,-9,31,93,-19,-63,-49,-19,-11,
107628792479,13,20,31,-67,55,-81,-19,2,
107628792479,-15,-46,127,94,55,21,2,-2,
