timestamp,C1,C2,C3,C4,C5,C6,C7,C8,
4280154953,-10,15,62,16,67,49,-21,-14,
4280154953,11,51,71,99,11,18,-38,5,
4280162669,10,17,92,48,-56,-46,-4,3,
4280162669,11,17,18,28,82,-27,35,7,
4280170261,-18,-93,-6,56,-78,-9,-28,-22,
4280170261,-17,66,47,39,-2,6,56,-7,
4280179041,1,-32,14,-51,-4,13,-92,-17,
4280179041,-1,21,98,74,-16,-22,-5,6,
4280200083,19,-10,-113,-93,-75,-32,43,10,
4280200083,-5,-4,98,106,21,28,17,15,
4280207377,4,-27,-99,-5,-24,31,20,-1,
4280207377,-2,30,90,12,42,48,22,8,
4280222590,2,43,-44,-41,46,-68,-85,-17,
4280222590,-8,-58,-77,-4,-99,46,45,-11,
4280239372,-3,-4,-106,-105,-41,-46,-20,7,
4280239372,-6,-17,56,85,-50,74,-9,-24,
4280260069,-9,-78,-94,-84,-67,-7,35,-4,
4280260069,-4,33,88,67,14,-4,-9,6,
4280274954,-22,30,-40,-65,76,38,19,-1,
4280274954,6,16,-15,20,-3,-32,-23,1,
4280290113,4,-24,-19,-73,2,49,-9,7,
4280290113,-2,10,-80,42,12,-1,2,-13,
4280308376,-2,7,-93,-12,-94,28,-6,17,
4280308376,3,36,93,80,49,20,-25,-29,
4280320059,-22,-39,0,-9,-24,-25,-36,-35,
4280320059,13,21,47,28,69,-2,12,7,
4280338197,8,2,-87,-73,39,61,41,20,
4280338197,-3,-38,-44,-13,59,-26,-54,4,
4280342389,6,40,127,127,-16,-7,-2,-1,
4280342389,2,9,-128,-86,1,80,7,15,
4280364998,4,-31,-105,-5,59,16,-18,20,
4280364998,-29,-98,-128,-77,17,46,-57,-51,
4280390703,8,29,126,127,-127,-52,23,21,
4280390703,23,41,83,61,127,38,14,-12,
4280395082,-15,16,-17,-51,-88,-10,0,-19,
4280395082,0,-19,-72,-124,-108,-61,-48,11,
4280409960,-4,35,113,88,23,96,122,7,
4280409960,5,-27,-91,-58,12,-66,-126,11,
4280417364,-5,21,8,-49,-19,-74,27,-35,
4280417364,8,-13,-5,69,80,88,27,25,
4280432443,12,20,-18,13,23,21,28,28,
4280432443,-24,-38,-50,-94,-57,-35,-17,-3,
4280455156,-18,-9,-25,15,-92,-23,-1,-11,
4280455156,5,9,98,70,46,-37,-41,-14,
4280470126,20,19,65,90,127,42,8,27,
4280470126,-15,-67,-106,-128,-128,-34,34,-5,
4280477564,4,22,127,110,82,37,2,8,
4280477564,0,24,28,1,73,15,-18,-11,
4280507551,15,-1,47,-44,66,77,70,16,
4280507551,-14,-31,-90,-68,-29,-69,-15,-17,
4280522439,-12,4,-75,66,-17,71,34,3,
4280522439,-6,-27,-4,-25,-74,-65,-26,-27,
4280529904,7,53,32,9,15,32,26,18,
4280529904,6,29,61,31,17,1,-12,1,
4280546293,13,68,82,88,106,4,-3,-3,
4280546293,2,5,-128,-90,-48,-12,10,24,
4280567580,3,-65,-86,-26,31,1,-97,-5,
4280567580,8,36,92,24,-15,12,60,13,
4280574862,-1,40,17,31,-58,9,13,-2,
4280574862,-6,-19,-71,-85,-9,-34,5,13,
4280582488,-17,-4,-4,78,52,-2,31,-37,
4280582488,-2,-29,-4,4,-36,-3,-53,-4,
4280597393,-4,51,-31,-18,0,-28,-5,0,
4280597393,-4,-20,-86,17,32,55,16,2,
4280604847,1,0,-50,4,-65,-86,36,-9,
4280604847,-4,-51,6,13,50,-11,-45,-2,
4280620086,-7,-36,-97,-110,-115,77,-14,9,
4280620086,-10,-28,67,26,66,5,41,5,
4280634984,10,30,24,74,19,-11,2,-8,
4280634984,-4,17,-76,-96,-35,-22,-37,2,
4280642343,-14,-22,-66,-61,-42,0,-39,-11,
4280642343,13,28,48,109,78,-27,28,11,
4280657307,10,-6,-24,20,13,54,-20,28,
4280657307,-2,-17,-91,-98,-119,-38,16,-20,
4280665051,7,21,127,127,127,41,27,1,
4280665051,-9,-19,-57,-3,50,74,-7,17,
4280694983,-3,5,32,78,107,58,52,3,
4280694983,10,-33,-127,-100,-40,-13,-49,-5,
4280709855,-5,3,126,127,-82,-13,57,23,
4280709855,-1,9,-109,-79,86,33,11,-1,
4280717311,-4,0,16,-93,8,-10,-41,17,
4280717311,-2,-9,4,107,2,0,26,-19,
4280739864,3,65,12,31,42,0,0,-3,
4280739864,8,-6,-55,-45,42,-2,-8,15,
4280747354,2,17,39,10,44,-1,12,4,
4280747354,-8,-41,-88,-56,-63,26,-9,-4,
4280762334,9,33,94,73,102,39,9,16,
4280762334,-9,-47,-50,-15,-37,-49,-3,12,
4280769978,7,28,32,26,71,42,15,-10,
4280769978,-9,-1,11,-88,-112,-37,-36,-45,
4280784785,-26,-74,-63,-74,-128,41,-10,-16,
4280784785,-5,41,97,127,118,-21,17,-4,
4280799851,0,30,43,-9,50,50,59,21,
4280799851,12,6,-128,-128,-113,-72,-50,0,
4280814950,-13,-64,42,-80,-48,27,-9,-8,
4280814950,-8,19,43,62,-5,-7,-3,-7,
4280822481,11,5,67,62,-44,-40,-46,-16,
4280822481,6,21,-19,16,-90,9,22,22,
4280837585,4,-20,-82,-20,50,-18,12,12,
4280837585,-25,-97,-84,-80,-63,49,25,-3,
4280844917,-9,95,82,93,44,-14,-38,-37,
4280844917,19,14,4,94,106,-7,-33,27,
4280867394,12,-16,-66,-56,-5,-42,-22,-9,
4280867394,-1,-41,27,42,70,13,-35,5,
4280882469,6,48,26,70,68,-40,-53,5,
4280882469,-4,-32,-85,-128,-38,64,54,23,
4280889933,-13,-19,-41,-6,83,-44,-7,-19,
4280889933,-8,24,44,-17,-119,47,4,-34,
4280912296,0,-15,7,25,-9,24,-23,25,
4280912296,-3,0,-32,-24,-45,-75,-7,-12,
4280927288,2,-27,-48,-29,-18,-68,-10,22,
4280927288,-19,-88,-102,-104,-26,5,30,-6,
4280942404,9,73,127,127,21,-30,-78,-24,
4280942404,12,0,-53,57,88,40,-10,16,
4280949820,-4,-49,-74,-59,-51,-32,113,34,
4280949820,7,69,114,71,127,84,6,9,
4280964992,11,77,127,127,58,-13,-27,0,
4280964992,33,23,-13,-27,90,8,5,-1,
4280980034,-8,-3,68,27,-24,-33,6,-1,
4280980034,-33,1,-74,-40,-79,-27,15,11,
4281002333,6,0,76,-20,41,69,0,1,
4281002333,-27,-93,-128,-110,-65,-111,-15,-33,
4281009742,1,58,93,80,-39,36,35,2,
4281009742,6,17,32,72,-31,-21,-34,-3,
4281024829,1,9,-48,-60,49,51,101,28,
4281024829,3,26,79,68,-61,-27,-28,-6,
4281032443,1,-62,-128,-95,57,20,-30,-24,
4281032443,-3,47,84,85,65,26,31,5,
4281047544,-17,28,72,77,-65,-48,-10,-13,
4281047544,6,-7,-122,-62,-11,60,20,-12,
4281062355,-6,-72,11,17,-71,-4,-3,-17,
4281062355,-7,11,-63,-36,54,-28,43,38,
4281077505,5,-2,-13,-36,-45,-35,-6,-25,
4281077505,17,48,25,58,2,-1,-32,-3,
4281085035,-14,-28,-92,-105,3,5,-49,8,
4281085035,6,-36,127,93,-17,-37,20,13,
4281099861,18,30,-5,-77,-120,-11,14,7,
4281099861,-12,-38,-47,9,50,-3,-71,13,
4281114853,-9,-43,-128,-88,-52,6,10,-23,
4281114853,-7,12,123,74,17,27,33,12,
4281122476,14,51,-5,121,-36,-35,-52,-22,
4281122476,-5,2,-40,-37,-33,85,-21,-6,
4281137297,7,7,127,62,50,-33,-3,32,
4281137297,5,57,16,23,41,41,6,5,
4281144814,-12,-26,-118,-128,-28,-60,-31,-24,
4281144814,-11,-28,28,12,-128,-89,-11,-10,
4281159770,0,1,127,38,-15,-15,7,14,
4281159770,-12,-19,-79,-68,-44,7,-8,-23,
4281182452,4,7,43,85,4,-11,7,27,
4281182452,13,27,-19,41,104,-16,21,0,
4281189937,-14,-52,-113,-70,-82,19,35,3,
4281189937,10,39,119,93,-5,6,-9,-10,
4281205007,9,-11,62,-52,24,6,39,16,
4281205007,4,19,14,96,16,23,-11,5,
4281212384,15,30,76,13,52,41,-31,-11,
4281212384,4,-9,-86,-55,13,-65,-6,11,
4281219802,-11,-7,-26,-7,-30,-11,45,6,
4281219802,-15,-25,31,-27,-128,-55,-77,-25,
4281227315,2,29,122,127,127,117,38,-5,
4281227315,-2,0,1,-91,-120,-121,-10,-4,
4281249950,-3,18,-44,-24,-12,-22,24,7,
4281249950,-8,-24,127,1,-48,8,-25,9,
4281264885,-7,17,-93,-68,120,73,48,8,
4281264885,0,-10,-68,-53,-7,-50,-28,-14,
4281279990,13,7,71,54,-66,-27,6,3,
4281279990,-6,-3,-44,15,49,58,28,-1,
4281295107,3,-24,-19,-87,-69,-43,-15,10,
4281295107,-39,-10,22,78,-83,13,-18,-13,
4281317253,-13,-18,-44,-105,-64,-68,22,-10,
4281317253,-17,-63,-66,-33,77,113,19,-25,
4281332495,18,-16,-31,41,-40,-2,18,9,
4281332495,-33,-33,45,18,-30,-16,-17,-3,
4281354998,-10,5,-79,-32,-48,-7,-58,-10,
4281354998,10,7,120,55,64,2,-5,-18,
4281362440,19,21,-1,101,-27,-42,32,35,
4281362440,-5,-70,-87,-89,33,10,3,5,
4281370120,5,15,127,45,49,-10,-29,-29,
4281370120,23,91,82,46,-19,91,47,12,
4281384897,13,-75,-77,-110,-27,-73,-32,6,
4281384897,-47,17,-8,0,-73,-68,-8,-3,
4281392407,-1,14,7,-38,56,22,56,17,
4281392407,15,-27,-42,-27,-109,11,-58,-8,
4281399942,-2,-28,-45,4,103,28,12,-6,
4281399942,19,32,127,105,42,21,32,19,
4281407336,-12,-55,-125,-128,-54,20,-35,-1,
4281407336,-24,46,-6,76,-79,-62,17,-10,
4281422326,9,17,127,125,75,86,-41,-2,
4281422326,24,42,-65,-114,-3,-25,72,0,
4281437524,-12,-25,62,-70,78,10,-35,-24,
4281437524,-18,-7,-103,-6,32,8,22,-28,
4281444848,1,-2,-5,81,-26,-29,15,16,
4281444848,13,-10,-12,-14,15,6,-5,23,
4281467606,-12,-29,-42,-19,-67,-39,46,4,
4281467606,9,33,-17,-63,-118,-15,-8,31,
4281482350,-8,-55,-121,-56,123,47,-56,-24,
4281482350,-8,6,112,127,-55,-73,-12,-25,
4281504984,-5,69,96,63,29,-16,-5,-1,
4281504984,8,11,72,-11,-6,7,-5,15,
4281527546,-15,-15,-7,6,-23,5,-28,-16,
4281527546,1,14,77,-3,-43,-32,15,-4,
4281542325,1,15,3,62,12,-24,20,-5,
4281542325,-3,6,-39,-48,-67,-29,-57,1,
4281557340,-6,-1,11,-52,-7,25,-20,0,
4281557340,-7,-11,-81,-27,4,-70,20,-9,
4281587544,-7,-10,-85,-45,-114,20,40,-25,
4281587544,-29,39,125,64,-33,-40,-44,-10,
4281594844,10,5,19,45,-20,18,-18,27,
4281594844,-5,-4,-128,-90,-45,-5,25,24,
4281602308,5,-34,14,46,-19,0,-49,-44,
4281602308,6,14,-10,51,19,37,-21,17,
4281609760,-27,-66,-112,-126,-76,-61,4,-34,
4281609760,-8,4,119,-25,-45,16,5,-12,
4281617561,2,21,127,125,66,46,-26,-19,
4281617561,15,20,18,72,64,-9,51,25,
4281632578,-16,-44,38,-106,-128,-65,7,27,
4281632578,3,-25,64,107,-3,18,-83,-26,
4281639979,-14,29,-4,-25,92,12,-22,-9,
4281639979,7,43,13,21,16,5,46,-8,
4281647537,9,-3,-97,-75,-81,-24,42,9,
4281647537,11,-21,2,-45,-10,-11,-6,12,
4281662310,-17,-3,24,-33,46,-39,2,-21,
4281662310,5,5,-37,56,-10,58,-14,11,
4281677349,-13,-42,-63,-50,44,65,36,11,
4281677349,-2,7,127,127,109,-13,-92,-54,
4281684804,28,41,-108,-71,-124,-33,66,50,
4281684804,-6,-10,23,-12,50,27,-29,-37,
4281707284,8,8,55,-31,-105,-37,49,6,
4281707284,10,7,26,11,30,82,32,23,
4281714933,-3,20,-8,-58,-42,-45,-3,-5,
4281714933,-37,-67,-90,-88,-45,-55,-43,-20,
4281729995,23,78,20,107,-1,30,-4,-5,
4281729995,-30,-67,42,-128,-52,-67,30,31,
4281745059,18,-33,4,-21,-97,-7,7,11,
4281745059,-2,11,-78,-43,-79,-60,0,-45,
4281760063,-6,-54,-3,40,56,33,15,8,
4281760063,-2,59,83,39,6,-6,-85,-29,
4281767347,-8,-52,-27,10,33,17,10,16,
4281767347,-5,-21,-83,-56,-5,97,19,-16,
4281797445,7,-27,-26,-57,-73,-22,-7,-12,
4281797445,-21,30,97,9,79,38,-37,29,
4281812325,10,-59,-73,43,-10,-44,-13,1,
4281812325,-7,3,-23,-54,-80,-43,-12,0,
4281819788,-19,16,7,-51,-19,31,-24,-36,
4281819788,26,-29,-66,107,101,43,44,34,
4281835009,-7,-26,10,-79,-58,-39,-22,9,
4281835009,15,35,71,88,56,33,4,-31,
4281842323,-36,10,86,32,43,-31,-46,-38,
4281842323,24,87,91,94,9,23,-7,26,
4281864988,-11,-25,-128,-120,-79,-15,33,-13,
4281864988,20,21,103,106,-30,41,32,12,
4281872515,8,-12,-7,51,82,40,15,26,
4281872515,-24,0,-40,-84,-56,-51,-24,-49,
4281894955,5,-1,66,-60,126,26,-5,-5,
4281894955,-5,-9,37,-50,-128,5,0,-8,
4281902303,-2,-11,24,124,3,10,51,4,
4281902303,21,-24,-110,-50,-53,-9,39,28,
4281917512,38,52,-20,-18,1,31,22,21,
4281917512,-17,-18,-77,-83,-22,50,-3,-3,
4281932359,-3,7,-17,-9,-23,-14,26,1,
4281932359,-12,0,-80,-62,-59,-31,-40,-10,
4281940136,34,41,80,71,59,-3,58,45,
4281940136,-1,23,-87,-112,-66,-15,-26,-37,
4281947466,-2,-28,0,20,-44,-10,-90,7,
4281947466,-1,1,60,68,53,-26,0,-11,
4281962472,2,-27,-70,11,-54,18,-16,-14,
4281962472,-11,-5,127,22,10,-26,-42,-9,
4281977513,6,-8,-59,32,3,62,41,30,
4281977513,9,-28,-35,-121,-66,-32,28,21,
4281984949,-36,-60,-47,1,17,-52,-64,-32,
4281984949,9,86,103,120,120,5,46,-5,
4281999975,20,17,-17,-98,-95,-16,29,18,
4281999975,-6,-28,-4,20,81,72,0,-6,
4282007352,-9,-10,65,-55,-70,-35,-17,-25,
4282007352,0,-37,-109,-71,28,49,3,9,
4282022289,12,-7,-35,-37,16,-33,-21,-12,
4282022289,3,9,70,56,-27,8,75,19,
4282037484,-3,-7,-59,-57,-128,-39,-38,-17,
4282037484,-2,19,-53,76,30,-26,14,15,
4282044798,2,40,115,55,127,61,7,2,
4282044798,7,-6,-51,5,-79,-8,-46,14,
4282067493,7,-7,-40,-29,-29,15,38,9,
4282067493,-3,-28,-12,-60,-34,-28,3,2,
4282074796,-12,-32,-93,-44,17,31,-14,-5,
4282074796,-7,8,-24,-11,14,-24,59,18,
4282089926,7,36,127,127,-72,17,19,20,
4282089926,21,47,97,77,48,-33,75,16,
4282112239,-4,-73,-123,-128,-28,16,-24,-4,
4282112239,-14,26,113,20,-32,-7,-3,-7,
4282134782,1,0,14,28,-35,-48,4,14,
4282134782,2,-26,-77,-23,-62,21,20,-17,
4282142254,-7,1,114,-19,2,-15,-84,-13,
4282142254,22,18,6,63,-13,-4,26,26,
4282150000,-31,-48,-112,-128,1,-3,22,-19,
4282150000,-13,-15,127,48,-66,-28,-75,-22,
4282172446,-8,53,-27,-28,110,71,16,15,
4282172446,4,-4,-73,12,-106,-37,-16,8,
4282195050,3,5,-94,-78,-20,46,14,14,
4282195050,-6,-6,116,85,38,-26,12,-39,
4282209833,2,-22,37,28,-12,-52,-35,15,
4282209833,-12,6,-100,-16,25,-6,-11,-9,
4282224849,16,37,-22,-21,108,64,3,9,
4282224849,4,-25,-10,13,-66,-13,-26,33,
4282240070,-23,26,51,-27,-60,18,-19,-25,
4282240070,-10,11,20,0,-1,11,36,4,
4282247298,32,48,40,-20,20,-63,23,40,
4282247298,-27,-46,-64,-65,-55,39,-7,1,
4282254781,-11,-45,-45,27,-19,-7,-7,-26,
4282254781,5,12,-21,-107,47,9,-19,10,
4282262294,3,-21,-69,31,-15,-1,-40,-22,
4282262294,13,72,120,74,45,28,49,2,
4282269741,16,36,-8,12,-67,-24,13,21,
4282269741,-6,0,-28,-42,-8,-5,-30,1,
4282284745,0,32,104,103,107,-40,-65,-31,
4282284745,0,-49,-116,-93,-90,61,42,8,
4282299990,-13,35,127,88,-6,36,-13,-21,
4282299990,11,0,-34,87,126,58,37,6,
4282307225,3,-11,-12,-23,-45,-50,77,1,
4282307225,10,34,45,-41,-36,-28,-66,-30,
4282337285,-24,-7,11,48,-50,2,9,6,
4282337285,2,-17,20,20,6,-4,-41,8,
4282345013,11,-10,13,-20,-32,13,21,11,
4282345013,-4,-18,-95,-47,5,5,2,7,
4282359943,-6,15,78,127,111,65,22,-1,
4282359943,22,20,-89,55,66,36,19,23,
4282382357,-3,-41,-29,-19,31,-20,3,-24,
4282382357,-23,8,30,54,77,-22,-10,-30,
4282389787,-3,-80,-124,-80,-23,26,-17,6,
4282389787,8,57,65,90,-41,-38,-9,7,
4282397347,-4,26,1,27,-44,35,-39,17,
4282397347,28,-26,4,-14,-29,17,42,3,
4282419802,-12,-1,48,63,21,79,-24,18,
4282419802,9,-19,-51,21,-80,-66,5,12,
4282442325,-11,18,11,-75,-55,-7,-20,-6,
4282442325,0,33,41,62,-57,-10,-7,-31,
4282457257,0,-47,-75,-38,88,18,16,9,
4282457257,-13,-22,-52,-68,20,25,44,0,
4282465053,-3,-62,-128,-117,-97,-39,-18,4,
4282465053,3,58,127,105,107,62,41,12,
4282479777,6,16,-24,15,-48,-53,92,9,
4282479777,4,-48,58,-94,54,24,-103,-16,
4282487239,15,18,110,-2,-77,-12,23,-10,
4282487239,-9,36,27,68,53,4,23,9,
4282509800,11,-26,-128,-71,55,13,33,-2,
4282509800,-22,-16,7,2,22,10,-32,7,
4282525178,-14,-60,-56,-104,-74,-28,-16,5,
4282525178,-1,32,67,44,10,71,-28,-19,
4282539767,9,26,-24,-38,110,45,-51,3,
4282539767,26,-38,-101,-120,-93,-27,-19,27,
4282555076,22,20,0,16,30,-9,28,25,
4282555076,-25,-56,-86,-64,-85,-41,-5,-14,
4282577502,-11,-85,-70,-55,56,-42,-54,-9,
4282577502,-27,82,102,91,-103,-32,47,0,
4282592310,2,59,104,87,91,41,51,-17,
4282592310,11,32,58,78,95,35,-1,6,
4282607253,9,-8,-64,-77,-68,18,40,-10,
4282607253,-10,-52,-59,-17,1,5,25,16,
4282614995,0,72,34,49,-128,-24,6,1,
4282614995,-5,-21,-21,-16,104,-46,7,-23,
4282622291,-12,-27,104,67,10,80,-37,-2,
4282622291,14,16,45,-2,48,-15,18,0,
4282629999,-9,-22,-112,-48,18,1,5,-17,
4282629999,-9,-43,-10,-37,-98,-17,12,15,
4282644851,-13,-4,125,127,73,55,-8,5,
4282644851,12,66,29,29,-29,17,-1,-1,
4282659860,17,-52,-4,-16,-34,1,-56,14,
4282659860,-11,-55,-39,-35,-56,-36,50,-8,
4282667378,-32,36,116,70,94,31,-32,-8,
4282667378,11,12,-79,-26,-51,-31,28,8,
4282682532,-2,-37,-68,-85,21,-9,-23,-8,
4282682532,20,66,127,127,53,-50,-13,9,
4282697544,16,12,-33,-43,-72,-74,-73,-8,
4282697544,-27,-121,-54,-84,21,-11,51,-10,
4282712328,11,10,-123,-119,-128,-73,26,8,
4282712328,14,-13,-5,56,45,15,-13,-9,
4282727322,-31,46,4,-16,-3,-37,-32,-48,
4282727322,-13,-42,-48,-48,-12,28,14,18,
4282734786,-31,-37,-20,-67,-117,-25,-29,-32,
4282734786,18,14,18,81,97,-16,12,36,
4282749751,36,39,-65,-60,17,37,60,33,
4282749751,-15,-33,-59,-128,-128,-20,-55,21,
4282764978,5,-8,80,64,45,45,12,-17,
4282764978,0,-2,-9,-47,40,56,30,20,
4282779830,11,17,79,-71,-65,-60,7,37,
4282779830,-22,-35,-76,-106,-81,0,-82,-57,
4282787314,13,3,100,108,114,24,56,10,
4282787314,29,74,45,-8,-57,-19,44,-5,
4282802252,-27,-44,-128,-76,11,60,-69,18,
4282802252,23,-24,51,-47,-45,-55,18,12,
4282809745,-12,5,19,24,60,75,4,11,
4282809745,-22,-44,-45,5,-46,-36,-17,-15,
4282824793,12,15,59,18,43,9,48,-6,
4282824793,-1,13,-14,-23,-41,43,-21,-10,
4282832463,4,-10,-3,72,40,-98,-45,-4,
4282832463,6,41,7,-9,-69,20,-18,4,
4282847473,0,-25,-65,-112,-128,-97,-1,-43,
4282847473,6,4,74,127,82,75,-45,-10,
4282862332,8,45,-61,-80,49,-38,-11,11,
4282862332,-11,-27,8,-1,-27,-23,55,28,
4282869840,-8,12,82,73,-72,31,16,1,
4282869840,11,12,-53,-38,59,-8,0,-5,
4282907245,-5,-35,-128,-128,5,10,12,30,
4282907245,-9,15,127,36,-20,1,-20,-22,
4282922594,3,-33,-98,-70,-55,11,71,20,
4282922594,0,38,70,109,-93,-2,29,24,
4282929960,5,37,115,-4,-34,-25,-81,-42,
4282929960,7,-10,-28,-53,95,8,28,21,
4282944733,-17,-45,-27,11,-88,-31,-19,-3,
4282944733,-4,-12,-104,-69,61,12,10,0,
4282952270,9,23,99,56,81,-16,45,28,
4282952270,-6,13,73,-13,-30,-24,-14,2,
