timestamp,C1,C2,C3,C4,C5,C6,C7,C8,
6671681874,-3,0,27,-52,-2,9,-16,-5,
6671681874,15,24,43,43,29,12,5,3,
6671686773,-9,-10,-31,29,67,-7,16,-5,
6671686773,-2,23,58,-37,-78,1,15,-1,
6671694718,-5,-38,-105,-28,100,-12,-14,-4,
6671694718,-10,-22,-15,76,-21,-22,-29,-7,
6671702443,3,10,19,-121,-37,3,-14,2,
6671702443,6,12,16,86,56,16,3,5,
6671716744,6,44,49,-29,-39,-1,20,8,
6671716744,-3,-57,-79,-36,46,0,-4,0,
6671727407,3,16,22,68,-91,-7,-2,1,
6671727407,-2,5,-7,10,11,-2,16,1,
6671739669,-10,-18,-16,28,-108,5,-2,-4,
6671739669,4,33,36,12,115,18,10,0,
6671754519,-2,-9,7,27,-80,-7,0,-5,
6671754519,-18,-40,-62,-126,12,-18,-44,-15,
6671769416,2,15,49,97,55,-18,-4,3,
6671769416,0,25,0,-128,-115,0,31,7,
6671776859,-1,-28,-19,-12,83,13,-24,-2,
6671776859,9,4,-20,-4,-7,-13,-14,2,
6671791930,9,10,7,36,79,16,33,8,
6671791930,-14,-33,-58,-2,-58,-29,-22,-17,
6671806911,5,16,9,12,68,-1,21,7,
6671806911,-5,-26,-20,34,-46,-3,13,0,
6671821797,-5,36,27,1,-26,15,12,-1,
6671821797,-2,-15,-1,43,76,2,-2,-3,
6671829433,-17,-43,-84,-128,-4,-36,-41,-7,
6671829433,9,73,78,127,-128,0,49,16,
6671844620,5,-5,-4,-87,64,22,24,3,
6671844620,-26,-68,-57,-73,-44,-44,-74,-23,
6671852061,5,39,48,94,-51,27,14,7,
6671852061,-1,-60,-68,-108,115,15,-18,-9,
6671866881,-2,-35,-58,-51,-43,-15,6,-1,
6671866881,10,60,50,-44,65,2,8,4,
6671882219,-4,-31,-20,21,-128,-2,18,-2,
6671882219,-10,-18,-8,-23,109,-9,-23,-9,
6671890819,3,-1,35,-11,-50,-4,-28,-5,
6671890819,-4,-4,-19,86,33,10,8,-3,
6671904333,-2,-18,-50,-103,56,0,-9,-3,
6671904333,14,44,74,45,-32,-3,6,11,
6671913862,6,32,-1,-7,-3,13,35,4,
6671913862,-6,-16,-2,-33,-119,-5,-11,-6,
6671926817,-3,-29,-38,6,-16,-15,-7,-6,
6671926817,-5,-1,41,70,-8,-8,-18,-6,
6671943248,9,34,17,5,-55,-9,9,7,
6671943248,-3,-21,-18,-4,9,16,4,-3,
6671957224,6,37,41,-27,-17,17,24,5,
6671957224,-5,-17,-39,-11,59,-3,0,-3,
6671973992,-8,-22,-11,-51,17,-15,-33,-11,
6671973992,6,30,43,24,-5,-9,14,7,
6671979371,0,2,14,-32,-2,13,17,2,
6671979371,-12,-38,-87,-13,74,-33,-28,-3,
6671995679,-8,-36,-18,-85,16,-21,-36,-14,
6671995679,-8,-25,6,14,5,-19,-26,-6,
6672024491,-1,5,6,-60,-54,-4,15,3,
6672024491,-8,17,26,44,-61,6,1,-9,
6672031792,1,7,14,-46,-62,-19,17,2,
6672031792,-4,-14,-79,37,-44,-12,-11,-3,
6672039315,-1,-18,3,39,108,36,-17,-3,
6672039315,-7,2,-16,29,-83,-10,13,5,
6672054570,-6,-6,-36,-4,15,-29,-3,-4,
6672054570,7,48,44,-97,84,17,51,13,
6672061795,-21,-47,-54,-15,-6,-15,-19,-18,
6672061795,2,-19,-5,6,37,4,-33,-7,
6672069328,2,-19,-15,33,104,0,-41,-7,
6672069328,6,33,36,66,-75,3,6,1,
6672084410,3,-4,-29,70,80,12,30,6,
6672084410,-4,6,9,-53,-90,-25,4,0,
6672092070,5,10,16,-36,63,30,16,6,
6672092070,-15,-17,-3,-77,91,-80,-14,-6,
6672106978,0,38,0,-62,-87,37,22,4,
6672106978,-1,-37,-11,68,117,44,-29,-8,
6672114432,-11,-17,-15,-21,-88,-5,-44,-13,
6672114432,11,3,-4,15,40,15,10,10,
6672121967,-5,-11,20,-2,-30,-36,-18,-6,
6672121967,8,24,8,-25,-21,-24,18,9,
6672129293,0,-17,-18,19,-31,11,15,3,
6672129293,-9,-8,8,0,0,23,-4,-4,
6672144253,7,24,-18,-42,58,-34,36,12,
6672144253,3,16,-13,-79,-92,11,20,1,
6672151784,-5,-13,31,107,108,7,-31,-15,
6672151784,-4,-26,8,49,-128,8,-37,-8,
6672166907,8,23,14,-33,91,-6,-25,-6,
6672166907,-8,-35,-26,3,-40,-13,12,1,
6672174323,-4,5,-53,-43,10,-12,27,7,
6672174323,7,-10,-1,6,-66,13,-11,-7,
6672181931,-2,7,62,-20,4,12,-12,-7,
6672181931,1,11,0,25,34,-8,-10,-3,
6672189484,-6,6,32,36,15,-12,14,5,
6672189484,2,19,-20,-59,-83,11,22,7,
6672204246,-8,-37,-18,64,105,5,-32,-7,
6672204246,-7,-6,-19,102,127,-9,-3,1,
6672211711,0,-12,-30,-87,-95,9,10,3,
6672211711,6,27,37,83,127,-2,-15,-3,
6672226788,7,34,52,-58,-128,-13,30,9,
6672226788,-12,-71,-58,-26,43,-18,-42,-9,
6672234361,4,41,35,48,45,12,-5,-1,
6672234361,8,-2,5,-18,-15,1,22,8,
6672241897,-7,-24,-76,3,19,-10,-32,-9,
6672241897,5,39,43,6,-61,22,20,8,
6672249413,2,-32,-54,-45,-18,-25,-3,0,
6672249413,-16,10,34,-19,-80,-2,-13,-14,
6672264208,6,-30,-14,-9,77,21,-11,1,
6672264208,5,13,23,58,40,0,2,-4,
6672271766,9,27,0,-62,-93,1,30,8,
6672271766,-14,-30,-26,61,106,-25,-13,-9,
6672286746,-5,1,16,-58,-7,1,-17,-4,
6672286746,4,16,5,-18,-110,7,28,4,
6672294250,-11,-10,0,56,99,-12,-10,-10,
6672294250,0,-24,-37,-22,127,-9,-8,-5,
6672301776,0,13,25,26,-128,-39,1,2,
6672301776,4,13,9,-67,95,38,-4,1,
6672309347,-8,-35,7,79,56,22,-33,-13,
6672309347,7,22,11,2,-56,-6,14,8,
6672324352,-5,-40,-64,-5,-23,-4,2,-1,
6672324352,-1,12,1,19,34,-5,-5,-5,
6672331945,9,43,50,-18,-62,-10,48,11,
6672331945,-13,-50,-67,-20,-8,-6,-23,-9,
6672354352,2,28,52,127,126,9,-12,-7,
6672354352,2,-7,17,-123,-39,-2,5,0,
6672369269,0,-17,-59,-73,-69,-4,17,4,
6672369269,-20,-1,10,25,43,4,-15,-9,
6672391860,-28,-28,-52,-65,-8,-33,-8,-2,
6672391860,-9,11,36,-31,3,15,5,5,
6672399267,-23,-10,7,53,-110,0,-23,-10,
6672399267,-12,-8,-5,-24,-4,-5,-15,1,
6672422028,-5,-14,-18,-40,79,13,3,-1,
6672422028,11,9,29,44,-42,-16,7,2,
6672444245,14,37,50,105,-71,13,45,6,
6672444245,4,-16,-23,-25,30,13,-5,-5,
6672459263,8,-10,-43,-102,127,-20,0,7,
6672459263,4,5,15,60,75,-5,-16,-5,
6672474182,-13,-1,21,92,-75,-17,-14,-9,
6672474182,5,14,-15,-95,-60,4,25,6,
6672496689,2,30,21,-28,-7,-25,22,8,
6672496689,1,-13,-36,-62,2,8,20,2,
6672504195,-10,-5,38,66,90,17,-22,-9,
6672504195,1,28,10,36,-99,-3,13,5,
6672526934,6,-16,-6,-19,-42,-5,4,5,
6672526934,-8,-17,-23,-37,20,-13,-22,-10,
6672534257,5,0,-36,-79,56,-2,-2,4,
6672534257,-6,7,20,-24,-59,-9,-3,-2,
6672549498,10,7,11,-24,-41,12,12,4,
6672549498,-7,-3,-42,11,83,-25,13,0,
6672571772,-2,17,23,93,-128,5,18,2,
6672571772,-3,-29,-35,-67,127,15,-29,-9,
6672586890,-28,-75,-81,-4,99,-6,-61,-28,
6672586890,5,22,-6,-19,27,13,6,5,
6672594209,12,3,34,-46,-128,-1,2,3,
6672594209,-2,10,16,-73,55,-19,-7,-9,
6672616691,1,18,0,-15,-69,1,3,-1,
6672616691,1,-12,-25,-62,-29,11,2,1,
6672631960,-3,-25,-29,-32,32,-7,-5,-2,
6672631960,1,14,29,64,-24,7,9,5,
6672646772,3,25,13,-49,-97,-1,35,9,
6672646772,-9,-9,-41,31,-8,-8,-6,-4,
6672661807,-12,-47,-33,-45,20,-3,-16,-12,
6672661807,-1,-18,-34,-37,1,-15,-19,2,
6672676795,0,20,39,40,-39,-3,6,8,
6672676795,7,15,3,-44,-77,15,29,8,
6672684485,-5,-8,-21,59,81,4,3,-4,
6672684485,-6,0,28,-26,83,0,-20,-10,
6672699280,2,-18,-6,-63,9,-21,-13,-1,
6672699280,-6,10,5,-74,85,-7,18,4,
6672706889,-7,0,-16,61,-93,7,0,1,
6672706889,-4,-6,-14,49,64,9,-18,-8,
6672721981,-13,-14,-24,-39,60,-1,-18,-5,
6672721981,3,14,9,18,-75,-7,12,4,
6672736928,9,31,7,8,84,12,18,5,
6672736928,6,21,40,-14,-13,3,20,-1,
6672744294,-4,-22,-1,8,-53,-6,-4,-4,
6672744294,-6,-9,-15,8,79,-20,-21,-3,
6672759263,5,2,-53,-39,-128,11,15,-1,
6672759263,-2,-32,6,72,109,17,-32,-7,
6672766902,-2,-12,22,-33,31,-5,-43,-9,
6672766902,9,27,8,-21,-24,-6,24,8,
6672781919,7,11,-14,-87,-79,-1,16,-4,
6672781919,-11,-28,-4,86,49,-13,-7,-12,
6672796914,-4,37,29,-36,-12,33,-9,-5,
6672796914,5,-29,-3,64,57,12,-24,-6,
6672804301,-20,-35,-71,-50,-47,-41,-40,-7,
6672804301,9,18,21,-13,-43,13,17,10,
6672819475,0,-6,-24,-30,47,-26,0,6,
6672819475,-3,45,69,23,-110,-1,23,7,
6672826752,9,17,17,71,-60,40,34,5,
6672826752,-9,-41,-47,-64,37,-19,-18,-8,
6672841818,-9,-13,19,7,127,-5,-12,-2,
6672841818,-1,16,24,79,-125,17,4,-2,
6672856908,8,-1,-23,-39,96,-4,6,7,
6672856908,9,17,7,-48,14,-12,11,5,
6672864447,-12,-26,-17,-36,-73,-6,-9,-5,
6672864447,-7,-33,-17,-15,86,15,-24,-9,
6672886765,1,37,43,87,-100,-2,23,1,
6672886765,-1,-38,-34,-71,83,-7,-7,0,
6672894293,-2,19,24,-12,98,-7,-29,-9,
6672894293,9,27,16,5,-67,8,32,8,
6672909175,16,26,61,-1,53,34,41,11,
6672909175,-9,-52,-94,-79,116,-24,-41,-14,
6672924314,-5,6,67,79,-84,-3,-18,-4,
6672924314,-9,-13,-2,-65,104,0,-11,-8,
6672939472,5,32,0,53,-34,7,25,6,
6672939472,-13,-14,-15,-28,30,8,8,-9,
6672947007,-2,-34,-24,-27,-89,-10,-28,-4,
6672947007,-5,-22,-16,-22,35,2,-36,-11,
6672961963,6,5,-16,-24,-11,-3,-3,-2,
6672961963,6,4,14,92,-33,-8,14,1,
6672976747,-23,-23,10,-120,92,1,-32,-13,
6672976747,-12,44,51,127,-67,4,-5,2,
6672984418,-7,4,-37,-128,82,-3,57,17,
6672984418,-17,0,-34,41,-63,0,7,-1,
6672999292,-13,-12,36,88,105,0,-30,-12,
6672999292,-10,-9,-29,-26,9,-5,-22,-7,
6673006974,-7,-34,-13,-47,30,-17,-55,-12,
6673006974,-13,48,124,102,-33,13,14,-3,
6673021962,11,-35,-104,-128,-63,-5,28,13,
6673021962,-3,-2,37,39,-55,-20,-32,-8,
6673029376,2,17,0,20,100,17,18,5,
6673029376,11,12,-43,-29,-125,17,29,6,
6673051880,-10,-31,-2,-13,93,1,-34,-8,
6673051880,-2,-7,-1,2,24,-2,-9,4,
6673066762,-2,15,13,-78,-50,11,15,1,
6673066762,-5,-27,-56,35,-115,0,2,-3,
6673074327,-7,1,69,127,58,-7,-20,-7,
6673074327,-4,-48,-35,-7,55,-13,-44,-9,
6673089255,8,6,-40,-3,27,10,39,2,
6673089255,-2,13,38,-99,-113,-7,6,1,
6673126726,16,83,53,72,-17,12,60,13,
6673126726,-4,-44,-41,-122,-45,-18,-2,-9,
6673141929,0,-37,-34,-44,-7,-11,-28,-11,
6673141929,-2,28,56,12,122,-4,-5,4,
6673149330,3,5,-38,-24,-128,-6,33,10,
6673149330,-5,-16,-27,-75,116,-4,-6,2,
6673186763,-5,21,49,-3,106,-7,-12,-6,
6673186763,10,34,44,-8,-64,-26,26,8,
6673201978,-1,-33,-96,-44,-53,6,-8,1,
6673201978,7,10,18,99,95,3,0,2,
6673216950,-1,-6,21,-128,7,1,26,5,
6673216950,-8,14,-5,127,-90,17,-29,-19,
6673224310,8,-17,24,35,127,8,-19,-4,
6673224310,0,14,4,96,-64,-2,19,6,
6673246708,-11,-11,25,37,62,-4,-31,-11,
6673246708,-8,-14,6,43,-6,-9,-36,-10,
6673261751,2,25,18,89,29,-22,24,10,
6673261751,3,-3,-12,-128,-60,-9,16,3,
6673269246,-13,-33,-39,33,112,15,-29,-15,
6673269246,5,34,51,90,-117,6,8,0,
6673284268,2,-17,-1,-90,-49,-11,1,0,
6673284268,0,-6,-17,38,-28,-5,-15,1,
6673299480,-11,-29,-39,26,96,-14,-48,-12,
6673299480,5,23,63,20,-27,9,-4,-2,
6673306908,1,-20,-26,-128,-28,-20,-11,2,
6673306908,-4,7,-33,-106,59,-28,-8,1,
6673321727,7,12,21,79,-128,45,29,6,
6673321727,-12,-23,24,60,100,15,2,-9,
6673329457,-5,-14,-42,37,-88,-24,-7,3,
6673329457,-3,8,-8,-87,116,-21,13,3,
6673344450,-1,-9,18,59,-107,24,-4,-6,
6673344450,3,15,18,-46,11,-5,2,0,
6673366898,5,22,47,9,5,-20,-25,0,
6673366898,6,12,8,17,42,1,18,6,
6673374423,-17,-30,-61,-90,-50,-11,20,-1,
6673374423,1,4,25,79,-14,1,-4,-5,
6673389490,0,11,-13,27,127,11,-8,-4,
6673389490,2,17,30,-38,1,-3,5,2,
6673396806,-3,-6,-38,-13,-21,-19,4,-5,
6673396806,0,0,11,7,-119,22,17,1,
6673404421,-14,-59,-48,-64,-6,-19,-35,-10,
6673404421,-1,23,38,-23,71,-28,-30,0,
6673419190,5,0,15,22,60,-1,-32,-10,
6673419190,5,-1,-47,-6,-24,1,28,9,
6673426805,-1,10,20,-56,8,-15,-5,-3,
6673426805,6,12,55,-28,-92,-14,-1,7,
6673441938,-4,1,-23,44,-37,-3,7,-5,
6673441938,-7,7,-6,14,-61,3,14,0,
6673449326,3,27,34,-76,116,26,16,5,
6673449326,-2,0,-6,65,-81,-17,-4,-5,
6673464423,-7,-29,-25,-23,-104,-16,-15,-1,
6673464423,-1,-5,-16,9,40,14,-12,-1,
6673486670,5,37,12,25,16,-28,20,11,
6673486670,3,8,32,-2,-73,9,24,2,
6673494431,-5,-30,-9,9,-16,-1,-25,-12,
6673494431,-4,-10,-10,42,34,3,-12,-3,
6673509221,4,15,-8,-85,-23,-11,27,8,
6673509221,-2,6,-8,16,-34,-8,8,1,
6673516751,2,-2,10,89,-39,6,-20,-3,
6673516751,3,11,28,9,36,-9,-8,-1,
6673539399,-6,13,25,-74,70,-25,-28,-5,
6673539399,5,40,10,73,-48,29,35,4,
6673547005,-9,-41,-8,-66,43,-8,-5,-6,
6673547005,-9,-6,21,-20,-47,-19,-29,-6,
6673561967,2,-8,-1,18,-79,11,-15,-5,
6673561967,-6,-25,-31,94,51,-20,-25,-4,
6673569305,8,36,3,-36,-111,12,29,16,
6673569305,1,27,13,-2,-82,11,48,4,
6673584421,-4,-34,-47,-26,50,2,-15,-7,
6673584421,1,4,21,-9,-28,-7,-20,-15,
6673599477,-11,-20,8,101,45,11,-35,-11,
6673599477,2,20,29,104,3,-32,2,5,
6673606948,-10,-36,-54,-116,127,9,-31,-2,
6673606948,-9,5,4,42,76,14,-9,-3,
6673621914,17,32,35,50,-110,21,61,20,
6673621914,-15,-67,-95,-128,104,1,-50,-13,
6673629213,6,43,89,5,-50,-35,-10,-1,
6673629213,6,21,13,88,-9,-13,28,10,
6673644228,2,-4,2,-65,-2,1,7,-1,
6673644228,-10,-21,-10,-35,-93,7,-5,-6,
6673651871,10,11,-27,43,39,-9,-2,7,
6673651871,1,18,38,-82,7,-8,20,5,
6673659495,-2,-3,-1,-13,-80,14,5,-6,
6673659495,-7,-45,-61,15,111,3,-40,-7,
6673666920,-2,19,63,34,82,14,-3,-3,
6673666920,3,-37,-35,12,-6,-13,-19,-7,
6673689416,2,18,39,20,25,-1,3,3,
6673689416,2,9,8,-89,-53,-3,16,6,
6673696771,-13,-35,-59,19,9,-20,-42,-11,
6673696771,11,63,50,35,-1,-1,26,11,
6673711870,0,-7,-29,-50,-109,20,52,7,
6673711870,-16,-21,27,-32,78,3,-34,-17,
6673719442,4,7,24,18,39,-3,-19,-6,
6673719442,2,20,-6,-23,-80,7,16,4,
6673726753,-1,-44,-48,108,63,8,-5,-1,
6673726753,-4,14,-18,29,-8,-13,-6,-4,
6673734410,2,6,35,-105,-19,-2,12,0,
6673734410,-3,-23,-39,-48,38,-15,-27,-4,
6673741752,3,29,-7,40,62,-2,10,0,
6673741752,5,-3,29,14,-18,-10,21,9,
6673756696,-23,-61,-69,-8,-82,-20,-29,-16,
6673756696,5,-1,36,7,94,33,-18,1,
6673771697,-10,8,23,6,63,3,-13,-9,
6673771697,7,6,-21,-2,-5,-22,6,6,
6673779293,-3,14,23,85,-65,-2,4,-2,
6673779293,8,0,-38,-101,-14,2,22,6,
6673786930,0,-9,-32,-12,-47,-1,-1,1,
6673786930,-7,-12,22,-8,-40,-4,-8,-10,
6673794232,3,34,15,115,118,14,16,8,
6673794232,-2,-8,10,-71,-81,-12,-7,-1,
6673801772,-6,-26,-5,-42,56,-3,-34,-10,
6673801772,8,11,14,-8,25,8,23,6,
6673809213,-10,-22,-17,38,-26,1,-15,-5,
6673809213,-4,-3,-39,121,114,9,-29,-8,
6673824317,-2,17,7,-128,10,-27,16,6,
6673824317,1,-14,-28,-8,-94,-8,17,10,
6673832002,3,8,14,29,103,24,19,0,
6673832002,-8,-12,-11,-41,-115,-10,4,-7,
6673839390,-6,-1,33,6,2,-18,-25,-6,
6673839390,10,18,57,26,5,18,-1,-2,
6673846879,-8,-51,-83,-84,-30,-15,-29,-11,
6673846879,2,20,27,74,53,19,4,5,
6673861830,9,15,-19,-38,-20,-14,7,6,
6673861830,-4,-6,19,-21,44,-10,2,1,
6673869428,9,38,36,19,-26,0,47,9,
6673869428,-13,-76,-87,3,-28,-10,-13,-15,
6673884280,-11,-10,-13,122,-75,13,-25,-13,
6673884280,11,37,28,-37,116,26,4,5,
6673891762,-3,-21,5,-63,47,-9,-38,-11,
6673891762,4,-3,15,-19,-25,-22,-13,6,
6673899418,14,47,33,37,-18,-10,34,13,
6673899418,-7,1,-30,17,-67,20,20,-3,
6673906700,-24,-20,-16,1,46,-15,-11,-9,
6673906700,6,35,38,-26,-71,-2,12,6,
6673921929,1,-18,-28,53,64,13,3,1,
6673921929,-4,1,17,17,-29,2,-9,-6,
6673929400,14,-11,-11,-98,69,3,-19,4,
6673929400,-14,-35,-6,106,127,4,-35,-18,
6673944242,-5,-7,-24,-13,35,-23,-12,0,
6673944242,-3,24,13,-48,-96,-14,13,3,
6673951921,11,44,69,50,36,-1,50,14,
6673951921,-14,-58,-95,-26,-107,4,-5,-8,
6673959302,1,25,36,-72,92,-28,-23,-6,
6673959302,-1,-42,-15,-2,-101,13,-1,0,
6673966957,3,4,-18,29,21,6,-25,-7,
6673966957,13,15,90,8,116,14,5,4,
6673981945,-2,-14,-37,6,103,1,14,1,
6673981945,-9,4,-13,5,-85,-19,-12,-4,
6673989226,14,26,39,0,53,16,26,15,
6673989226,-4,7,-28,24,-99,2,32,-1,
6674011908,-15,-45,-35,-52,83,-2,-43,-16,
6674011908,6,20,34,35,90,-27,-24,-2,
6674019482,3,-11,-20,-28,-13,8,11,6,
6674019482,-11,36,50,40,74,3,-1,-3,
6674026711,0,-16,-16,-87,-128,-4,14,0,
6674026711,4,-5,-20,59,92,19,-17,-8,
6674041784,-5,-15,3,86,-43,-16,-11,-5,
6674041784,-2,55,45,-112,65,-24,35,11,
6674056923,-2,-37,-76,9,-111,24,13,2,
6674056923,-10,-27,-55,24,127,-13,-35,-12,
6674071906,6,14,56,65,-128,15,5,4,
6674071906,-2,-1,-2,3,107,-15,-14,-6,
6674079480,11,22,37,15,-32,7,2,5,
6674079480,-3,-34,-64,-39,-26,6,-3,-3,
6674086933,-18,-14,-10,1,59,-21,-27,-10,
6674086933,12,43,36,22,-41,-3,22,7,
6674094245,-3,-41,-30,42,-45,13,-1,-5,
6674094245,-2,11,36,13,74,10,-12,-8,
6674109244,-2,50,70,-59,-77,16,24,-3,
6674109244,-7,-67,-54,69,56,1,-16,-2,
6674116759,5,-3,-16,-114,125,-21,-40,-1,
6674116759,13,21,1,33,-90,22,11,3,
6674124328,-11,-55,-54,5,75,-13,-13,-7,
6674124328,5,71,94,-6,45,10,39,11,
6674131950,-13,-42,-15,-18,-46,-8,3,-11,
6674131950,-8,-32,-77,62,15,-4,-35,-5,
6674139282,1,33,69,-71,53,-2,5,8,
6674139282,1,10,-48,47,-81,-34,12,2,
6674146896,-4,-6,-15,-94,7,12,-1,-4,
6674146896,16,22,22,23,-7,28,5,2,
6674161902,0,-45,-28,77,47,-14,-29,-5,
6674161902,-8,12,31,57,22,10,-1,-1,
6674169506,2,22,0,13,-93,1,16,-1,
6674169506,-9,-47,-23,-48,65,-32,-22,-4,
6674191757,1,59,60,-41,-78,5,32,1,
6674191757,-4,-31,-25,19,103,9,-5,0,
6674199296,-2,-9,-37,102,-69,1,-18,-2,
6674199296,3,-4,11,-97,37,20,0,3,
6674214304,-1,7,1,127,124,-37,-2,-6,
6674214304,-8,-39,-78,-122,-128,-16,-11,-2,
6674229298,-3,24,60,60,127,17,-19,-5,
6674229298,1,-1,5,-34,28,-12,8,4,
6674244191,2,-6,-15,35,-62,14,5,-1,
6674244191,4,2,-1,-59,114,-9,2,0,
6674259160,-13,2,37,70,88,-7,-45,-16,
6674259160,12,20,37,6,-34,10,19,5,
6674266608,-5,-39,-97,-59,12,-15,-10,-4,
6674266608,7,33,34,31,-11,-8,29,12,
6674274189,3,18,-8,-2,-80,16,19,2,
6674274189,-15,-77,-38,6,119,-11,-41,-13,
6674281941,-10,-49,-19,-90,127,-15,-70,-20,
6674281941,4,29,60,24,-117,-13,-17,-2,
6674289404,8,-6,-1,3,43,0,17,9,
6674289404,-9,-13,-26,-46,-112,-20,-3,-5,
6674304473,1,48,-12,-6,-17,17,49,10,
6674304473,8,6,-3,-27,-54,5,15,5,
6674311760,-18,-55,-29,-52,127,-23,-51,-22,
6674311760,-5,-22,-27,3,-128,-5,-30,-7,
6674319241,7,19,50,11,122,15,4,5,
6674319241,11,25,13,24,20,-2,26,6,
6674326743,-10,14,-2,-127,76,-12,21,-1,
6674326743,0,-6,-18,104,-44,1,10,-8,
6674349225,-11,-43,-33,18,54,-15,-42,-18,
6674349225,4,47,52,2,71,8,-2,2,
6674364216,14,12,12,50,10,32,28,12,
6674364216,-10,-12,-8,-66,-49,-11,-3,-8,
6674379399,5,21,22,27,19,-13,22,10,
6674379399,-19,-80,-72,-19,-53,-19,-39,-15,
6674386873,-4,3,21,-5,89,7,-41,-8,
6674386873,-1,10,16,33,84,4,-5,-1,
6674401802,5,-17,-55,-42,-72,-5,11,5,
6674401802,-1,31,27,-12,-11,-6,21,3,
6674424419,-2,-2,-5,-94,70,-11,7,2,
6674424419,6,35,41,18,-35,7,16,6,
6674439411,4,10,32,20,-128,8,-1,3,
6674439411,-6,-15,-14,-2,40,-2,-4,-5,
6674446886,4,22,38,-53,45,-4,-7,2,
6674446886,0,4,-7,69,21,-11,16,2,
6674454353,-6,-16,-23,-69,63,23,9,1,
6674454353,5,-8,-17,5,-80,13,10,1,
6674469337,-14,-27,-7,85,10,1,-37,-12,
6674469337,-8,-14,0,54,123,21,4,-3,
6674476777,4,7,2,41,59,-23,-1,3,
6674476777,0,-2,-5,-125,-128,-11,12,2,
