weight,trial,C1,C2,C3,C4,C5,C6,C7,C8
1,0,3.7775190457232637,3.5548884893723036,10.118708414002395,16.712606140408802,11.037656168367167,4.048657718555207,2.200031999351608,2.341853436403679
1,0,3.586861283422394,3.257500175060853,8.917731758193463,14.683117177085153,11.32633794558831,4.4318314441529285,2.268277002983623,2.3537164467479412
1,0,3.5392323222072672,3.4009210546179003,8.091871044639642,14.643166862333404,9.866393558917476,3.8390131565179315,2.440516410063697,2.5146558999153767
1,0,3.4596128265101225,3.5905031024909864,8.782433946207728,13.489549435510346,8.001981109477544,3.554530626874765,2.1947557894628864,2.4905360752160752
1,0,3.4314645313729533,3.6498983967236245,8.456840632519079,13.434199523714915,8.113000300783298,3.615637565088352,2.163513763239828,2.6000579063948352
1,0,3.8558030307617006,3.9491248349695827,9.624847882875518,14.87595882118993,8.60392125700598,3.2346030529669623,2.2050926146815866,2.7379031046691744
1,0,3.909618558700085,3.9663580851037334,7.947524519229733,15.294503415505792,9.104767205313863,3.596313253492392,2.2703573608599625,2.6452425688907573
1,0,3.732021560872604,3.100203372534546,7.8130908154331,15.240141397244827,9.549000423676942,3.8213222275432677,2.1425380005132784,2.5292053639322765
1,0,3.965320823760818,3.5442783957510064,8.375472291419612,14.816539576038789,10.078569725549633,3.9998169542635984,2.201641645680271,2.5027290150819397
1,0,3.7921407251022856,3.0939434241754324,8.031089235693354,13.052407829989141,9.417075874300595,4.208345371757092,2.157751953155661,2.3811136445997834
1,0,3.741221305475234,3.3242067955319063,8.095515849282855,12.960904310744477,10.436144347535771,4.035664823977902,2.178715882569652,2.446987631808398
1,0,4.1145452419343025,3.545331610463143,8.488072367176834,14.788610281407484,10.770353408548868,4.100646844059152,2.2099177412765854,2.573098210252425
1,0,3.934187236458633,3.649724937363345,8.811655657929867,15.014457512564737,10.954222912333195,4.2176630659389875,2.187507909003921,2.238075857357051
1,0,3.8894813672917143,3.5207794768805947,9.414736261705396,15.425984222240432,11.40743020318823,4.4018918612235085,2.1438449784972047,2.2621742178188446
1,0,3.5652645753605023,3.4738417614029187,9.698145254759833,16.18035334969009,12.357856748652418,4.742332518874508,2.257697998734044,2.178256403081652
1,0,3.800850769137213,3.657163998600461,10.430870551335712,16.739077531985238,12.059169839233494,4.125382629798436,2.0135050970885486,2.254091326802823
1,0,3.956303200877751,4.131920738345167,10.06130158466194,15.979214710913809,11.427961176480839,4.525929408054238,1.897725774453464,2.2582153861274237
1,0,4.12098282233159,4.385357144311372,10.415040820720515,16.77958426792317,11.80519585018561,4.66280336021981,2.0253461320936577,2.4058900066427134
1,0,4.386425461024502,4.79643410734046,10.778400773270706,18.320090005492702,12.895076351845482,4.73974418274666,2.1634073787089623,2.696895587442746
1,0,4.478102509872412,4.5634636462241,10.266433735127448,17.66904644734458,12.665295110676347,4.898678768425482,1.9411875180760922,2.5553237461374305
1,0,4.409765816368009,4.545473463173267,11.127064720852566,18.381939203160886,13.425313970363748,4.754787339839831,1.930357348735505,2.5512216742082288
1,0,4.660663448615308,4.868000246562,10.970272985609956,19.189319966689126,14.054996961310133,4.701146958808223,1.9901754405308072,2.6769101322830364
1,0,4.627479991749509,4.735319520545124,10.867402386006262,19.932969607882292,15.395876873791904,4.739211623424135,1.9249898500970368,2.442041473421103
1,0,4.4713922413735965,4.631870269703735,11.321013933062313,18.996622106326353,14.228009560331879,4.973855252122567,1.8640568232543497,2.517279158233837
1,0,4.343973985152281,5.085318122891914,11.667426114263005,17.60879661412588,14.059295460688865,5.072783154068541,1.7122459727788797,2.307693525314223
1,0,4.628442440062197,4.76585642340951,10.265488116174906,17.44776907792909,15.174142627701562,4.946388402869497,1.8155109689552233,2.4753994469208833
1,0,4.643878881848184,5.110480491212912,8.990344848326574,16.049212379777753,12.268164119935712,4.2957908030669465,2.0387847156966066,2.6557565996252714
1,0,4.810687752176456,5.264605131319814,9.711643504276195,17.68713005562504,13.179940867902092,4.5972349222907845,1.8972827750154888,2.5900092289220153
1,0,4.673740846365706,5.469829569356755,10.253280412672655,18.34599720067098,13.721977312513598,4.83016684970693,2.146048758504552,2.7374286935566885
1,0,4.576635779998175,5.67590802312657,10.27099479837631,18.5782389326607,13.916143448203856,4.869549253171822,2.1177151217095598,2.6374176228095876
1,0,4.3399698692068505,5.7753242657629515,10.37560984458252,17.60999661201745,13.47451812537974,4.884427884391869,2.032375472434405,2.6445224983812197
1,0,4.306853671325668,5.94718145832118,10.670529224220541,17.822174537526678,13.210060492749717,5.125405818134197,2.208493816322833,2.7401167804621975
1,0,4.498131627996695,5.861392377857439,10.83426152709015,18.19764600695992,12.956972837045099,5.08459602706392,2.232313853757739,2.763291886297209
1,0,5.112222498685929,6.39658335345222,12.449332887262914,20.306712837558926,14.059557433171745,5.815212031631401,2.5447708926271284,3.1186288167943133
1,0,5.239237389437047,6.326279416605879,11.715822446576876,19.51716947593244,12.294552447412524,5.906671296614614,2.4030457117464175,3.303775532142713
1,0,5.546593342084988,6.0750558197226106,11.753125560201774,21.270546668160133,12.854705804120552,5.090265352502098,2.125534894129633,3.5308698492320216
1,0,6.330230110552054,7.235976919005617,13.549369461521529,25.319111168243243,15.105433548424601,5.050102160316296,2.200183745084828,3.5814763910033807
1,0,5.277377965030955,6.035965869601345,10.096128743620808,17.998589052490214,11.29072944745356,4.764150819012007,1.9542948926758814,2.9742552164582037
1,0,5.618984624543144,6.209224281147104,10.870625444743318,19.171571220881354,12.58566007000837,3.9430467638825593,2.069632905987734,2.9968155175853246
1,0,5.103145180838344,5.72203453628028,11.568897726032414,19.473383693213307,12.786830687727067,4.358836098665019,2.099308810538264,3.007658178244237
1,0,4.88786811520646,5.725999177949978,12.78768383800932,19.962322380207084,11.399289952454255,4.009181194641158,2.22488743389418,3.147882439121977
1,0,5.364381772709537,5.612786411815986,11.667455913522728,18.144777819609224,11.461890117439907,4.219654736086621,2.3569291280050746,3.390500001796331
1,0,5.129403034502042,5.4434450167169,12.571272042711042,19.627747953691856,11.894545927766702,4.3365983657331775,2.3515317491225973,3.5160586817102026
1,0,5.237638224464667,5.380004212652192,11.973997251189855,19.59680773490766,12.514867692832132,4.5931165576960895,2.6721774268116616,3.7292983732995113
1,0,4.863327642199301,5.178514444800028,11.806699758708278,19.786170109577675,12.058408501645129,4.5887686747750465,2.424771420182549,3.4349307828979367
1,0,5.01494188894068,4.824089437321625,10.781974956618123,18.136871724708634,11.888229389898873,4.4208471557066265,2.1348263185055907,3.3961424159603153
1,0,4.507087845189307,4.869192594618789,10.033510599734514,16.83875739727048,10.317995476213081,4.098529131762562,2.0219289807134326,3.066858776040053
1,0,4.870769200629867,4.979539389039095,10.239416758882497,17.404862512428693,11.080418030164681,4.300147261332921,2.1926561937512132,3.2900096289089253
1,0,4.791824145332829,5.267282161796191,10.798427501154116,19.174288481544906,12.004633439510519,4.387194397532413,2.215918205909337,3.3420230333751477
1,0,4.898996251323354,5.5194668295668246,10.711182458347025,16.813648361646198,10.359587337478152,4.667869488536677,2.20354795179168,3.298354462495373
1,0,4.5050372818372,4.735262035532503,9.458855772727356,14.7358459993106,9.880585680246115,4.867491379136302,2.6663148970789097,3.3945786433446923
1,0,4.520384392125227,4.49544178837186,9.595792240797742,16.0095317712082,10.922023132137616,4.91625928159579,2.2484867500223156,2.974487277265686
1,0,3.9742296840681424,4.106879168940236,9.079659020766247,15.244083787247659,10.753664547309068,5.3731901256958094,2.43576556471244,2.768037857665402
1,0,4.092781476986004,4.49109430269293,9.59344087774064,15.570972278618216,10.907407141261075,5.11580912536121,2.2765449950904366,2.917287554123995
1,0,4.0398252612985885,4.309096532163194,9.840094807310628,16.89331565576796,11.49797968602771,4.932693715662661,2.693159382226017,2.925473256961847
1,0,3.939374014894935,4.456162163593246,10.587214891989495,16.92520948921877,10.254913445293356,4.504397065158043,2.4807772951060905,3.1478184425878046
1,0,3.4553817127095052,4.304412987666891,10.98979798361012,17.123890723234172,10.866789384987218,4.299103693655001,2.4749492162305553,3.0269562046225627
1,0,3.5543506314205913,4.146903116679675,9.87744182939596,16.193358908728698,10.27649206563361,4.321178328406914,2.567171413395605,2.9194291019725704
1,0,3.1647698282070547,3.7446391400889536,9.441103613313414,16.171301981339123,10.145020955680117,3.9598875492356544,2.173126695695552,2.361199100183632
1,0,3.561942436099034,4.204947806078584,10.060694175735774,17.438003255937137,10.534604487120477,4.335361212049402,2.1975228052846636,2.336747766388869
1,0,4.010335246762559,4.105986058558952,10.401646623021165,18.310157611474846,12.046227293008297,4.506653577253525,2.3752413196278868,2.5160856794250472
1,0,3.7808576095649817,4.050044245143265,10.009302293085133,19.890733375606008,12.415733937179704,4.747064767352315,2.71652732669019,2.733932866784748
1,0,3.227741366824381,3.5208482473080016,8.116401611867886,17.469683375613567,11.7725363804367,4.655797007234003,2.1983600987377616,2.0103704493750607
1,0,3.4989745713592484,3.6199016350151085,8.53365941462005,18.28036784117797,11.947080575586032,4.460739991661178,2.168421687778044,2.1996777732397588
1,0,3.606194386739916,4.194308113933068,9.271369331054416,18.20971586938545,12.295276998797846,4.869630055257133,2.3449105204068124,2.4281967183611246
1,0,3.2017007176323746,3.5008288988574896,8.233116570606539,17.619584930993554,12.238573354958513,4.5019335757050865,2.2609771851570826,1.9945423850350101
1,0,3.4822319265168438,3.6252204234233885,8.712187397025275,19.555934791546697,13.801329853185564,4.730673094709685,2.5445903795351112,2.303162017746679
1,0,3.607511645394277,3.6803008646934314,8.62475462910657,17.924247082574546,12.995060203233038,4.827266401151618,2.6173109304631503,2.3211257386153705
1,0,3.2235391681906527,3.5934626696770424,8.190497311892063,17.723821993751226,12.968585044538187,4.561170343493788,2.358844003361411,2.1251806887361817
1,0,3.2342719311119223,3.2675909371613985,6.906712022918502,16.090929438749804,11.94212530028182,4.164784844705542,2.2247355334890413,1.9383423600471261
1,0,3.1400700496734464,3.162481936270602,6.901268993922864,17.26976615534241,13.033711218153664,3.9017869061493107,2.1772076308750323,2.217812297552622
1,0,3.0713229632474244,3.1887721983559456,7.223780405960426,18.42957674133337,13.868171096959111,4.113524844770578,2.0549664557756886,2.052769251200373
1,0,3.5328053321099055,3.5230720814527463,7.686979910468095,20.98198246643562,14.647462090386,3.7621181213067745,2.410547050567599,2.3241420768621297
1,0,3.481979063970441,3.5580901745732487,8.53389471602252,18.981876888708236,11.704841400703135,4.0259138543863315,2.424459281623972,2.07367814460136
1,0,3.3532842466073323,3.452139465749046,7.63407329752303,16.960180859683998,10.964316546200948,3.6636623907814125,2.301823865049709,2.061892945236757
1,0,3.168590011887298,3.4319003849035474,7.622213576183602,16.556580273848603,10.555420622951878,4.073744055218158,2.3950631075038533,2.0688432888892847
1,0,3.174084026551652,3.876258983982766,8.244474137703328,17.2897038017208,10.767265460288224,4.232868836710989,2.460677232811365,2.247621494065007
1,0,3.4988577729933845,4.00688338208654,8.37779054963826,17.865607350706796,11.278395985103632,3.7327202844690217,2.4801454827437217,2.3780443632631747
1,0,3.385029771267976,3.6504400137354662,8.852882939923237,19.039094417158147,10.50918472201741,3.6327831280286205,2.4690675657778645,2.4271226054710464
1,0,3.15218319371291,3.453389512365115,9.330298056188902,17.023356864720245,10.140877757792428,3.7703318588789663,2.474937362983486,2.5288755310534836
1,0,2.7593649395715714,3.580635074581606,9.825383371250386,18.654146910708313,10.639802361035173,3.980459270737491,2.7310227196828847,2.362412487064491
1,0,2.5910870921027316,3.2385289733819755,8.795180892248734,15.326175832814167,10.662461943506365,3.9811833594502373,2.5734684713571383,2.287745062454445
1,0,2.6777311603921503,3.0809529296914024,9.108597487958239,16.544522018842798,11.781876946122404,4.197037837436164,2.8541508456934737,2.3993929607983016
1,0,2.6465768438641564,3.1177494087019717,9.652652806649611,16.862838050188664,12.377078126573194,4.366716587383065,2.9777773477638134,2.6197873312665614
1,0,2.8189597952483005,3.4342086347006404,9.252289853882237,18.07894169384563,12.140865263248699,4.087713590721624,2.670649681831951,2.5023399878684893
1,0,2.891989836507672,3.465705462746808,10.298864295765641,18.357929938139442,13.665189092204457,4.753371684900638,2.8312184644147194,2.5214442879444894
1,0,2.9492805247305043,3.769507575197274,10.168463033941089,19.200520813289895,14.175652121459274,4.7221059039106015,2.86893303647804,2.6599428832418086
1,0,3.1283547494474466,3.5163187919778465,10.207663772559345,20.471785096516687,14.690863697349688,4.625309466299169,2.9864596136513897,2.6296750717471475
1,0,3.4820799191435023,3.8421377465802284,11.020053036251728,20.366065489258368,14.30033014980325,4.874091570865874,2.9612741569600893,2.7880510263131875
1,0,3.517506587190444,4.0353792209065436,11.781445511775935,19.67349963809537,11.624258342494933,4.477203390474966,3.0330470143578343,2.9654642622693954
1,0,3.438408689970057,4.101911080620672,13.278152972810718,21.50043775112808,12.811152482446877,4.708248258226177,2.812600516635859,3.0109560079782334
1,0,3.462112369058004,4.069104650091443,11.422143939442128,20.75740037260705,12.905916316701553,4.185948877979029,2.419547186510745,2.8915694927124553
1,0,3.969381077035689,4.811294637731902,13.376584096140087,22.757961583932648,13.85785264656731,5.211942661858327,2.972678654522605,3.2652058431584754
1,0,4.198292576825128,4.572348103278252,12.174178129678447,21.98813999428701,14.681036650896957,4.719051905162426,2.4920019164521694,3.1797910118340336
1,0,3.895239186301768,4.464851329211967,11.722836845412028,21.644968837112447,14.927614814624658,4.546145370639548,2.1645123285000647,2.6421162684641804
1,0,3.888067398117967,4.562487341977456,11.910312792388845,19.793869333521965,13.757868085089985,4.427663858186008,2.325554052889792,2.728124376495977
1,0,4.360323787051828,5.032207752965702,11.877922990774708,19.241945083592494,12.99971482647386,3.9346426040367,2.186150471724892,2.680240461279674
1,0,4.343809614658763,5.487781344685911,12.815361278006819,21.02397151968011,14.014429560050411,4.167066670039788,2.408217010564542,2.7563266425386295
1,0,3.9396587678599673,4.1497552223339795,11.062936574626537,18.79305040903795,12.41770292779069,3.934627066138938,1.9595270083232994,2.5645546034239346
1,0,4.190988848370265,4.3691310360855065,10.301099936783945,18.047672604524053,12.130018992898655,3.850631727318426,1.7210819656677834,2.6977299950945532
1,0,3.8303240597616592,4.200108434094366,10.058731799174454,16.712880630749716,11.264807756101431,4.020283118133232,1.7556116739968937,2.5197576994046953
1,0,3.777268149785616,4.380283514522726,9.956049333238168,15.401380698330158,10.3582883557851,4.004067802270264,1.6450400823475282,2.2504651335102923
1,0,4.412545760751108,5.041534588859631,10.408924599952876,16.097075757987767,9.674320211576772,3.775478857799762,1.783849958173232,2.416653239569431
1,0,4.127111450882091,4.69092419030189,10.139135832199957,17.895120808769214,10.849751134442092,3.2427909005810394,1.8309497720240853,2.2060459077981713
1,0,4.341704156893903,5.244160223439783,11.143834719374732,19.705729297759465,12.647611527412078,3.5077977799474414,2.024402268221604,2.5163674742810165
1,0,3.6048623475935653,4.275300045627583,10.328313472932555,15.090863872713442,10.929790360612985,3.6276039056086518,1.718963632605477,2.2028396164839616
1,0,3.3002345324882763,4.50462026718631,9.43653527197429,13.341888080211627,10.315832940253635,3.6510686377377306,1.8803317700543896,2.1270669906191446
1,0,3.3401179718260905,4.656772801202638,10.781883014393143,15.645908671103443,10.733207202597825,3.728694831600467,1.7504791152645196,2.3029533613296476
1,0,3.6000829783496573,4.904296212039434,9.092859486439197,15.440101406070648,11.386139549987785,3.704285721028485,1.9507103670192725,2.5994091660353607
1,0,3.7886811818003006,4.798729401571901,9.802471302445058,17.91647624283728,11.661007969416765,3.5865150433587307,2.200941297575494,2.79170263277976
1,0,4.187051562089102,4.966963513991717,9.767351892569565,18.882811648636707,12.951408740299797,3.8502237360013836,2.530950711024694,3.065836776769224
1,0,4.380171768324065,5.299998528274905,10.143996425135033,20.719440364083514,13.648493691999967,3.7278156558322304,2.4634548451078735,2.9346621595865625
1,0,5.0156661914257965,5.7052743838307505,9.466486960154814,20.47637417672582,11.867956142151508,3.4432444035821352,2.7567283952594304,3.5488446370537057
1,0,4.338396920770027,5.268420137864334,9.643812232589756,21.86510790041822,12.594337961268355,4.076878420966056,2.500775756975574,3.3256855315481184
1,0,4.241281720096818,5.227820932579328,9.928636937219059,22.066500740789785,12.241998043404388,3.636548186360156,2.469806832263997,3.1355098938496035
1,0,4.374290716575297,5.339878257849235,10.213270381528433,22.220136494966354,12.411352939341574,3.9244621971402776,2.6555685267208706,3.179183351430216
1,0,4.612401947671917,5.002707998830621,9.587821574051368,20.547739293165826,12.74353894668713,4.003965495343608,2.6229824266409216,3.3839678434012592
1,0,3.449166648015611,4.525217074279542,10.033266419822437,19.154729219391832,13.023927476246081,4.0032591841133405,2.4150416579077705,2.842195127923447
1,0,3.8300942702589484,4.17344346295157,8.73069384048133,20.871941414562617,13.171079491960276,3.577282424031159,2.555399690570418,3.210673091221566
1,0,4.0726593716214685,4.225940180323037,8.84924873137963,21.069269292261115,12.747985296019134,3.7030029662081523,2.692273642181285,3.2534658929130558
1,0,3.7923952671226813,4.311240598558728,9.88552094536249,22.833308865335738,13.184422213666926,4.076625476914215,2.804937816866147,2.8851971197578443
1,0,3.9369899182040857,4.3831727469383,10.496658234384697,25.85539008353836,15.177962923543996,4.353263551297166,3.116606982002168,3.21178021345567
1,0,4.4640421952785445,4.408629393795783,9.970517535468503,24.227236889102134,14.959143598860408,4.216111193710663,3.33527895451698,3.3655227426864487
1,0,4.164739170323194,4.747463422851261,10.900106355943912,26.780719542105395,16.517854889724,4.303595886770321,3.443726743448634,3.5939444102009452
1,0,3.9004764624384656,4.124684856360402,9.631428592073306,22.661730180421774,14.393517907467274,3.4992525647307904,2.7842417493566263,3.339597593173432
1,0,3.7104269365566886,4.071572268765009,8.559009639025245,19.133807904401284,12.541664590401018,3.979155765220721,3.023711162636573,3.1963291142220873
1,0,3.6663422129228214,4.24797289912683,9.300692471353514,19.853491753950596,12.136527266389628,4.334868200010452,2.91547423021805,3.0307138701199836
1,0,3.76934728051035,4.288349941161444,9.011459283538597,20.319373443804558,12.704510216279303,4.749973160085372,2.9347708008949795,3.016406424169766
1,0,3.804548512344135,4.323359048355701,8.632706886697664,18.99234843147587,11.173620047346393,4.293954952007439,2.627831115036286,2.8241951717750657
1,0,3.661501101388598,4.603218708014182,9.756948439462967,20.960388342967242,12.344860487518176,4.0554671364242045,2.4949404744057766,2.6549148189856577
1,0,3.7713287262019217,3.9327054472057186,9.078965188396522,19.047885066673317,11.229280370454795,3.7988614456414886,2.401802687639409,2.678974753168326
1,0,4.034285527973559,4.218150625385558,8.6925077152631,19.599476342508797,11.348275190309861,3.926738327633221,2.4147433621076644,2.6265695814975984
1,1,4.02470795392847,5.312450143708159,11.6693375393589,22.698941130876435,14.345595588174634,4.966280674581012,3.2094689153333253,2.943498313596312
1,1,3.8454995984992326,4.919846133015964,11.236750426492945,21.07439061255795,12.94908804515653,4.248823043378935,3.0267400962596676,2.7444318369453824
1,1,4.2981940559178415,5.374691882962302,11.783197233337239,21.156875623185922,13.294392565146907,4.567432892689937,3.166485666316882,3.059046700599718
1,1,4.451048902232627,5.056987188292999,9.338027212816105,19.1333354883306,11.013328689124364,4.1480079769041,2.9199170026677312,2.9974320390699916
1,1,4.675870588108484,5.0274053849282065,8.60157871917679,19.582369465949085,12.139847714364294,4.219231474930436,2.849717188292952,2.7845382812287243
1,1,4.651503352178242,4.571477540169802,7.619827283198059,18.331197198490123,12.348318440989601,4.244293411862549,2.7118410210768347,2.7078790129358272
1,1,4.317215289780985,4.485840777401006,7.988196164974348,16.908101225055532,9.7472591138224,4.699862459463297,2.5588186983864643,2.5977071771906752
1,1,4.223495186847834,3.7905761144689816,7.809406616488421,16.410256374519946,8.931938391003026,4.488215173785031,2.6833486314466017,2.6004773431065202
1,1,4.577259855959041,3.8706571526576954,8.103254189274754,17.13704233674647,9.880452560761915,4.1266993319698715,2.5270237029760754,2.9382558442912434
1,1,4.646606817373404,3.981794842034351,9.424595312993725,17.704241493973477,10.317244945393046,4.614565422190233,2.8458998385367225,3.187335412199032
1,1,4.934867888513013,4.242580326648525,10.468030616813836,19.91553517131308,11.275598303023582,4.766510049750793,3.0985892768659866,3.0598444766081627
1,1,4.33894317306166,4.964719205927557,9.799285779028382,19.987792284438353,10.803882494611027,4.471013243157964,3.308815476955207,3.1777786885777126
1,1,4.138528271954662,4.335911501016823,9.853143840813456,18.282781638785877,11.454858935648591,4.863101115319261,3.3757550549071302,3.3254897024583516
1,1,4.221135107802572,4.257181998234267,8.469825746839405,16.492644050462943,10.147785718108075,4.76556861960738,2.986752967962751,3.0130717338531254
1,1,4.521536321269,4.450895424766361,9.148855542305977,17.116808522642614,10.92446012194045,4.069639055735735,2.477034048714764,3.003034873575296
1,1,4.239408887833375,4.139260938397264,9.178642144859106,16.477608224079887,11.916462921526483,4.336588947261603,2.4566194396361936,3.0854053420281877
1,1,3.685453847444779,3.5857021227035673,8.840850720369621,17.33104874294825,12.444247975029239,4.401175899541717,2.0744549010543647,2.446622291360628
1,1,3.5343090073381296,3.436408185816852,9.155637423958458,18.713782311427934,12.351534862622307,4.601533830979094,2.10124439429284,2.298441958957816
1,1,3.547195674681621,3.6315719122795165,9.147760661856866,18.414826149869178,11.910524793367646,4.668543483223924,2.377530553623107,2.3881898416816782
1,1,3.738517958464471,3.808241814682544,9.211654265977637,17.047359519915315,11.422160165912807,4.394886471250746,2.518068026352976,2.604964149384957
1,1,3.8192393591451466,3.810014555528585,8.610350531962624,17.168290624353887,11.646434566578684,4.3224878197288366,2.5050184059978555,2.6000714498257715
1,1,4.173784537997301,4.233368237311863,10.113088212064616,19.971832441651344,13.444714698499295,4.476232740527684,2.3841148693418277,2.6567629269727537
1,1,3.2460207088574013,3.079267398647229,8.237133020922698,16.61157080804837,11.940872694171397,4.0160733460151254,1.9222122444324512,2.1231641868331255
1,1,3.5103079884167223,3.1670123888351625,8.883778352811365,18.733237329508214,13.185340743233995,4.398891895177028,2.1544287496868497,2.395964052509823
1,1,3.4567340720786253,3.147787011408984,7.770626752256812,16.83355270666774,11.986075205703902,4.081038894307089,2.11814551704607,2.4621131190945786
1,1,3.114559145873985,3.036602413061783,8.206904954271765,16.050965013160962,11.817931240845084,4.335024583326802,2.004172285367969,2.3278477910840354
1,1,3.535259929097146,3.143141476873021,7.784014227517935,14.842315739788349,11.640452133220359,3.9550886350787873,2.0358180470784544,2.4075698677451043
1,1,3.380868916443096,3.3192895988209523,7.483790026092168,14.678624852454984,10.782684838450082,4.204514825838874,1.9677079732448683,2.4001163798954477
1,1,3.6191654424900457,3.454396667878694,6.8747458268388515,14.512114967351119,11.667556331580158,4.550475551505005,1.9667944609996548,2.495794651107712
1,1,3.896839809793798,3.5763374449009624,6.231800674943484,15.78382203009854,12.183479089456183,4.493391141333205,2.068493090513571,2.692304223950801
1,1,4.30202884537079,3.6335887544615155,6.376794185446287,16.432167552923556,12.590568945967007,4.532633737989726,2.3124829550483783,2.858226621284518
1,1,4.361878287720967,4.218862472207426,7.039728731440196,17.389829448951094,12.2141729079355,4.826220888380151,2.3671290433919334,2.97259295585656
1,1,4.742069879467338,4.25944616312655,7.430432343919079,16.974929404063996,11.957585709984743,4.5542400718683735,2.4553285365811583,3.1243971368122767
1,1,5.704819447643153,4.460873691628015,6.791006780042752,13.566240684752625,10.295956805042623,4.2558593231620065,2.5538254459618286,3.7359256908605984
1,1,5.276482744813043,4.460016946326364,7.66631469141881,15.550153603276526,10.413738855493557,4.097082069523535,1.9814143253463776,3.309620253524924
1,1,5.276401078254999,4.697185913027766,6.428679312114715,10.878447038508023,8.485846352797019,3.7318486820701637,2.14963112604038,3.3137456254737647
1,1,4.931556594449432,4.20348990607333,6.692609756661376,12.152425812589534,9.058042212422908,3.5589584183629475,2.3193524790160014,3.202562045792984
1,1,4.610465639224461,4.210223501079207,6.505515091604876,12.27855787735346,8.313344267214084,3.4086593441772552,2.280807521414747,3.0498738041370537
1,1,4.398618445121792,3.7361819725880827,7.271835915570651,12.878114211588217,9.2339236722895,3.386402316320793,2.393966128828012,3.0021923065862914
1,1,4.4428228714461495,4.057373095555893,7.817596104451618,13.485853094127982,9.548998599251288,3.7253129087225423,2.522956894131654,3.1283367504260835
1,1,4.567574349315224,4.81462995053416,7.9504501500986,14.754434337610979,10.408603176577454,3.922248268166079,2.7104093828262514,3.5059657240822846
1,1,4.838280185606108,5.0161297432153376,8.131890197511183,14.955397296718271,11.035395983326048,4.291606336408537,2.9352100056959642,3.7422173914202737
1,1,4.376373687867553,4.180900866425692,7.686684194148884,14.843201680855618,11.034314468892456,3.8694199275739276,2.5131150825608866,3.238930481006925
1,1,4.594667010235361,4.535559184537998,7.814892650284405,13.594979875442647,9.070993457165695,3.7218189924584215,2.742030163328401,3.461122249824675
1,1,3.757906795424919,4.1644807259429255,7.762651874701572,14.646567742579713,9.056182198141219,3.039626751375819,2.4035647514998204,2.933956636927488
1,1,3.767224313890348,3.933695880279412,8.412776391315845,14.101928095264512,9.10278160067323,3.158232239435757,2.463554769104878,2.9719291493110136
1,1,4.402028731822577,4.44042273393172,7.987088712435896,16.538702176871904,8.749184406823398,3.1347298562067545,2.4981195707893797,3.4617054801211804
1,1,4.762175970023629,5.009257065047048,8.514646018982761,16.407283885334508,9.095293328885194,2.5835677759527718,2.3532363687952036,3.3028749929443384
1,1,3.935483769892393,4.279040237245046,8.607891280653073,15.770363589058425,7.495059813118833,2.570617022576612,2.1473899374345855,2.94047189837866
1,1,3.9782631564828033,4.479513790917253,8.748957277748483,16.660645378707308,8.284023396920558,2.579147385414962,2.297509351635751,2.8775507626104506
1,1,4.078113451208185,4.88876222979311,9.336392351432359,17.10898362813069,8.135215277100507,2.7859891695626997,2.344572664000197,2.9038708802328363
1,1,3.979037090972135,4.91993742320636,10.073936436582398,18.928235018892963,8.72469774485933,2.851369455323591,2.381268323277694,2.8970240754849987
1,1,4.142188538788462,4.515852036439201,10.157047836389946,18.826096142441514,9.840442086892725,3.3233444858337764,2.4355795211936857,2.844136581684891
1,1,4.130215321529837,4.833259840590452,10.36773850429715,18.72576186632822,10.661905874887509,3.198931658703209,2.5275720252310983,2.9723497801933045
1,1,4.354076628759145,4.81463348021852,10.733454316207244,17.782660865605102,9.833787761095303,3.4543853034872107,2.383324282985957,2.938193306701957
1,1,4.415301198104909,5.307197030259774,10.647179649154477,17.14329193953879,9.16939608170001,3.2654355141325127,2.6149832081341606,2.9611461888578123
1,1,4.237293465873181,5.7863363014508895,11.496117894349412,20.247710135482684,10.358115482583196,3.623483888598961,2.6782387973956747,2.928367602666635
1,1,4.4938617298207735,5.6449549912994685,11.482979847201554,21.80179670501548,12.72541511382008,3.7999918518249807,2.73013985155543,3.2858967287288934
1,1,4.200716163436108,5.036955911455118,10.142000952324372,19.928228822196107,11.112218934505929,3.970788220446699,2.5466494730489426,3.0215505538245515
1,1,4.548193467233153,4.917137211256305,10.485719888887449,19.655674716688743,11.422801864084413,4.18949521807631,2.7451145882563353,3.2661603752962307
1,1,4.61439286127006,5.285983886281156,11.109158591195499,21.175366697270213,12.050829359852717,4.540354046686223,2.8216945665572384,3.2059080440013568
1,1,4.273008120280909,5.249312753675704,10.502501557181938,19.34464784272383,11.94613370577757,4.391442102591948,2.780167682378026,3.2467103648585756
1,1,4.597994567263222,5.685668021451674,11.65190384226302,20.975733309930735,12.361438982770794,4.293657041065062,3.000926407121432,3.3842262421380713
1,1,4.775987491768982,5.911177154860769,11.584886078954431,20.691486897436633,12.934168869965074,4.348553497135643,2.810838578102671,3.486974886201076
1,1,5.093414505459246,6.203018782689633,11.826172127698388,22.396120464865756,13.010980358664579,4.364086276638425,2.932452194407751,3.613586239827517
1,1,5.503975941599398,6.525990364085807,11.747103246758696,21.36211787297579,11.246768981549755,4.051013704290154,2.716819369568,3.51690447806796
1,1,6.142082681713295,6.946984621929868,12.163718508913126,20.867099535187347,11.199307999001912,4.031629279563984,2.7972749210114154,3.818068874081208
1,1,5.940001544970641,6.601455452086193,13.007356067528404,20.88881175244326,11.496964582556785,4.377415816532283,2.9144274154161467,3.928872588019496
1,1,5.943892699524753,6.391655449398104,12.24621972813651,21.305952237871665,11.601573792728143,3.760031360294695,2.471908126812952,3.786107730036979
1,1,5.311767175836229,6.121918615428767,11.54921580339704,21.95645444941694,12.293298197074705,4.189960304373526,2.173010046912454,3.476800306877805
1,1,5.3905719346116365,5.959783924573673,11.321663969516853,23.27061706895538,12.763100314378978,4.312811253585289,2.4352560407904864,3.7929994852236706
1,1,6.142818432616863,6.3081674952584965,13.853960729106447,25.73292323355247,12.578457394239159,4.279006766932795,2.397443272945065,3.8367723325298186
1,1,5.058808372274971,5.4362095471996605,12.040808681438335,20.550698960086443,10.195938464543524,4.246069237693094,2.107178259415858,3.1504270021515275
1,1,5.287207548472635,5.279103017415561,11.382766934517791,22.096389599405395,10.602434465068912,4.331606183201286,2.303345991523772,3.234951865633541
1,1,5.598183544729073,5.2577372550555355,11.587891110923344,22.765952395326227,10.851564270895832,4.5749450007799135,2.4676243713711155,3.4882089937366145
1,1,5.515450840433587,5.431449052403862,11.945829031091295,23.79508219547513,12.089236849959613,4.226400538195615,2.700980418521257,3.698447450317757
1,1,5.141546090109784,4.9462039847729224,11.978714103137971,24.249777514335637,12.060150854827489,4.283862333502073,2.6018813081885654,3.484691642697317
1,1,5.631950608465304,5.060910250300955,12.100647401444455,22.925259565032857,11.105141928155248,4.553614711506365,2.765187876190027,3.752674462230782
1,1,5.230995591697062,4.415772401080638,11.324535896722324,21.0550259361696,11.683174250237597,4.919767313748232,2.8247618531016845,3.48693645117131
1,1,4.984325677480295,4.589182767885666,9.42470171526557,18.885270249118282,10.162252300220741,4.616747673843671,2.936994721961588,3.6945103948369815
1,1,5.4434573620791555,5.092662141865089,9.815498473717618,20.58200973414442,11.555214292076565,4.338679991582905,3.070372947516685,4.038022205197747
1,1,5.451370327253529,4.812151063885891,9.52618319540327,19.930284405972916,10.996261971998198,4.052544067673631,2.735983748501499,3.890454102529419
1,1,5.3515422740884375,4.738511102659377,12.002744767847526,19.55135040681583,11.034481037951977,4.408166738392051,2.8752111659695014,3.9508974440934415
1,1,5.626900140603661,4.75833784240958,10.313017262595443,18.384836584222924,10.527552504912139,4.444501932451253,3.001981460275564,4.138861259125763
1,1,5.114222396849028,4.182443534261458,11.27086325178429,20.652067169506942,11.798543401847361,4.737676365938795,3.018820876436485,3.8114286295879882
1,1,5.685065542956573,5.193135654644383,10.21882746339535,20.440816683041795,11.34893333197865,4.287002822646729,2.798558300041284,3.81356195284342
1,1,5.178575737516734,4.488044414658244,9.300766284792124,20.927687531143427,10.011306626388839,4.281351207470224,2.5565875155933178,3.483105846865937
1,1,4.944740218596143,3.655477084368828,10.634083166773538,21.495199782256076,9.99268580065752,4.418513685801563,2.5801738809873807,3.497102416114451
1,1,5.292311826563045,3.9466498408922615,10.509191038479134,18.054843493216115,10.355356078461615,4.600830314299343,2.600622512995297,3.47400328372498
1,1,5.731384033884543,3.9050085059062796,10.756174641119618,18.014934897425015,10.330189805596833,5.006127890234145,2.7673244462346633,3.9163636322516355
1,1,5.6017937782434295,4.034692946547037,9.362484928303001,16.47711423394798,9.602148265166171,5.327053431465334,2.6834972155103443,3.4663472724176168
1,1,5.413956813380347,3.7854214184667137,10.264504184566384,16.700759725921383,9.557709944062832,5.097288768877874,2.690555079787776,3.441376334838793
1,1,5.065507294283998,3.9324555108038233,9.86357650077575,16.724996396496337,10.406992036540883,5.219814027876602,2.736666159725891,3.2823564202594735
1,1,4.728106036600082,3.578175055495793,9.340115158620465,14.181570622827106,9.40868765064594,5.063607839314794,2.573450369825715,3.266044574167199
1,1,5.253954110949197,3.664813018131893,9.881943091403151,15.495356498562897,10.155118805998478,5.162450918574648,2.6654433936781086,3.334033726292328
1,1,5.850020842466808,4.298160739156072,10.536339017156063,17.922269934148574,10.826993734378178,5.843912347533446,2.738290332414785,3.794191879413698
1,1,4.8763539101377615,4.324942697285006,10.628326869877007,17.748647851831294,9.856074737848532,5.365419331996988,3.0338667910552957,3.292816353570182
1,1,5.45913317650199,4.653970010600806,10.910602217337962,19.624329147900138,11.072188969500674,5.437608579198974,3.162769681056235,3.6685789226951298
1,1,5.506323797734106,4.95801696049552,12.114254635037138,18.189498221391815,12.65723807946019,6.217640561930569,3.4559632719433577,3.7579660393185668
1,1,5.060775530486014,3.5681526404104997,10.749124018934864,14.800059217398857,9.791385193868297,5.862149550920195,2.905681789679241,3.1590865244899256
1,1,4.637853810089519,3.8084754171772595,11.584894922010749,16.233868614312577,10.634171675150554,4.970053492505701,3.046014790527791,3.00076193242996
1,1,4.871472494062569,3.694581514261256,11.414713422168644,16.188527308607544,10.14294981067131,5.1221617095898955,3.140254955377013,3.425599861413135
1,1,4.791428014703926,3.2515224340463997,11.71582491441167,16.771225999969893,11.259225880164722,5.575548289640229,3.382569245568494,3.4371510894115147
1,1,4.92515068659234,3.4459860870532504,12.77317459474075,17.71742325559919,11.619173091526637,5.926861069885176,3.151260059473654,3.4702850019201246
1,1,5.085395055572954,3.612944644625875,13.021005380670347,19.110590908095826,12.646010616308834,5.55639479999513,3.387821806883404,3.7343556329164684
1,1,4.684849737771173,3.2156650670957925,11.850697876293642,18.001998073295315,14.07417400850168,5.657484708047467,2.9227708233279746,2.919094036247014
1,1,5.091718956595743,3.0138693822752267,11.43524287713991,17.52956172068569,13.632704632073297,5.781868268751232,3.173744117797488,3.3172740235213976
1,1,5.426513542096933,3.3228854365310476,11.213444240065447,16.24146836408079,13.023320382127032,5.827749454909775,3.444750790827717,3.6906205264313345
1,1,4.003967214404024,3.2197057798125654,10.024724195882264,14.37775352711243,11.855027250614379,5.4150002437372,3.278900234609482,3.2216628872056
1,1,4.0076510631844515,2.903279081705058,9.317078784041831,14.907090237787582,12.334267608698973,5.342236696382382,3.059466559703875,3.097846159286965
1,1,3.722985846109733,2.946649502234927,9.758567560027043,14.39171443499744,12.044774926393092,5.623091961902991,3.3692004468203662,3.1883384298507154
1,1,3.962195732160462,3.252671506981696,9.980445074602432,15.783397682736503,12.693412950685495,4.4836059322636945,2.860619633657799,3.1628455809280247
1,1,3.5509471030236726,3.448384245305181,9.02048969242584,15.877114296438767,12.871185736875729,4.196328641225784,2.7875158154118456,2.9456293247944187
1,1,4.070733149649077,3.999495412831386,10.55140061403229,17.601213069670987,13.127660273535666,4.46278843734758,2.8696497852943126,3.227862082720461
1,1,3.5535410959888862,3.197023793344003,9.152992408078024,14.274783100297647,11.884310876746492,4.514388400625593,2.6309437485892424,2.7860464415474753
1,1,3.20600852391069,2.975883631676262,9.348060886544875,15.467341842008773,10.822972644980695,3.704422552509575,2.574829554358067,2.6769519472722765
1,1,3.2766120013414204,2.9740743789500277,9.708275475029856,15.98399615952467,10.937380639954076,3.9705551341607834,2.7079529877344433,2.6518415494407304
1,1,3.632409607679451,3.108924704439034,10.433255481745679,15.973408461705548,9.989707124116503,3.6292353230856667,2.7877752211213456,2.9854583809569877
1,1,3.7162584842140256,3.0291215313723137,10.345944490387348,16.057768722288113,10.333847113657246,3.8167207859170684,2.7222351807934335,2.9577895397179534
1,1,3.8464396835984953,3.2437435264779766,9.166880452499704,16.443351546253155,10.0233661204433,4.148460666620713,2.6030077292353093,3.16532515585394
1,1,4.00389411730188,3.5701814386926247,9.088417516172937,14.527765839554075,11.077975281660713,4.090367928690971,2.5439553845571807,3.286436578674535
1,1,4.244473623393112,3.463018945872714,8.62650008180296,14.443098008055193,11.310149526140153,4.138032625569528,2.5998379437313863,3.2040836582509744
1,1,3.7018331288987154,2.6747826595729367,7.0324425004054385,12.68457313201867,9.784032028501843,3.572463754360313,2.265615906192227,2.7015597464577943
1,2,4.113803937325356,4.0196002597845375,13.238324825583062,19.095485723890313,14.06666467716123,4.8230965095199165,2.9135891031323293,2.983028192346799
1,2,4.698133378085377,4.375773090191739,13.164309507991751,20.469406835095143,14.179228176100729,4.7799121491493155,3.1641625799191173,3.3373248385173757
1,2,4.707123769315041,5.118100244710356,13.360313806512739,21.242428647193467,14.020851460265078,4.9852530310972165,3.673696611743136,3.5907595111952912
1,2,4.598116510014367,4.821565857593906,12.873827240296535,18.21169312002584,12.675066078025747,5.457596143656386,3.6878420027606955,3.6960615111387956
1,2,4.693814297682703,4.286105654407391,11.90223934694975,18.737451593539888,13.158134700235385,5.6730740963409545,3.8318901348074825,3.790031827569185
1,2,5.141390395866389,4.521819839628392,11.409524529191929,17.821233349556266,12.057969005958398,5.452876136793687,4.061368950406237,4.124496676703569
1,2,4.498949504710322,4.221082285533024,11.108576652232705,17.55369473347837,12.486092754635461,5.642512083782857,3.2656799241816086,3.481464178155501
1,2,3.9920144056065157,4.3730519220524675,10.825835667352989,17.982070056103442,11.841707563370441,4.986793653351308,3.1348969224192307,3.409315345891034
1,2,3.8663805927245654,4.333696133540254,10.786514492444198,19.602672025715062,13.348292752561049,5.357227408855423,3.1287328740880853,3.2294445716494673
1,2,3.489268849969476,3.8276853424291084,10.175508737976871,17.026485997036207,11.382800492493475,5.11057646082874,3.1719284382703448,2.989473944829901
1,2,3.4061550981527016,3.4588909448856415,10.520615234055962,17.70885311656049,11.413294492131428,5.2792247922992965,3.075173759311569,2.961976804707969
1,2,3.4965234689729043,3.565160960952607,9.847319141977183,16.61064530262207,11.727944265867189,4.923757232826904,2.9130962419901896,2.9393724857737595
1,2,3.459836800140765,3.2987078206178886,10.010395982919727,17.483473129735504,12.475483791806683,4.949329793818994,3.2485944363805848,2.9544239754168102
1,2,3.7329641265138807,3.434401306755172,10.317367178163497,19.476146642261757,14.04696348560039,5.307515315862348,3.1586796001740716,3.131074722123723
1,2,3.816934529126037,3.7152128499148067,9.480223726292678,16.76585469946937,12.181385311011711,5.094825628894848,3.2502635041897108,3.320915228419867
1,2,3.50589632539496,4.021001811167843,11.046193953755028,18.739027464015763,12.873036598750094,5.3045202626771175,3.487504695135171,3.204858334896314
1,2,3.5440330643171882,3.3187765592646308,10.131912168460415,18.751446855013977,12.40292647392526,5.095402728412885,3.858502943618835,3.606028504405951
1,2,3.522662310215968,3.1503022390272077,10.824903012020977,19.351676739237494,11.133558280891322,4.403179929459747,3.3428923747611994,3.211396666299579
1,2,3.4563992710189515,3.0378595723041064,10.373354249255446,19.312234039768935,10.896816907434241,4.503879446535734,3.3278887309095055,3.080852626444515
1,2,3.3242812656055554,3.225169793078747,8.622067335798826,15.073162312169739,9.977692806135298,4.189667355549332,3.3602185451018656,2.9723608357964872
1,2,3.02716291998628,2.9994755077024293,8.530324898219822,14.925277537314042,9.89903590297799,4.566590968900001,3.435606341054322,2.9168029482802114
1,2,2.9637051281628652,3.021174043258445,9.061861563214638,15.462576364117096,10.466783849607003,4.460641947818924,3.2664474571016267,2.7113911986658072
1,2,3.2267997316966346,3.0197632263200505,9.105584857757366,14.588191244843111,10.654465760837912,4.940873044236824,3.4308773636312457,2.869403674399378
1,2,3.1832719068672013,3.2945583256939455,9.493925257170455,16.687133427483115,10.788772871501127,5.089705833748863,3.1422397992764837,2.585420152868178
1,2,3.50628770759963,3.1803466908881415,9.722277442738726,16.356364152160783,11.42855585958302,5.248861377607323,3.1141838156723907,2.7023019248508136
1,2,3.3878617655908294,3.5741476320112695,9.921269504563732,16.984698472728127,12.018520133651231,5.433505842532956,2.7452811487313244,2.389581834945996
1,2,3.5466329499080764,3.5327207451542844,9.268432685833858,15.649370488650085,12.342365397483352,5.65751317442307,2.9759231195630433,2.5323301658971555
1,2,3.7134494941577505,3.385079399648852,9.925235747826147,15.712759159230945,13.731894214166534,5.297270045179911,2.865018417488024,2.478571396404726
1,2,3.423682802586328,3.8141931756339815,10.131082103177986,17.45822656704618,14.10755818277896,5.278749681181742,2.98130881017443,2.285760044023759
1,2,3.337939849232563,3.881147032784931,10.171331899537716,18.01333963012029,11.77225557316093,4.190424534352205,3.010408089212062,2.0737103108584938
1,2,3.1691063175860266,3.4394213430915044,9.79019883306085,17.981135397756624,11.825834731138565,4.224894530906891,3.0108734949665843,1.9583076315227288
1,2,3.5290871165588076,3.7531245558378683,10.555316058429712,19.501547931150842,12.807218834283491,4.067177715575833,3.1389352478548695,2.109449121038186
1,2,3.9030986347647834,3.776952548921885,9.662671291545522,15.611127650233572,11.462192059599346,3.8411343558049222,3.059848637814558,2.204673096220026
1,2,3.8390150318085126,3.604622796042746,9.723594985903997,17.37821897634052,12.455968273301933,4.158229163182975,3.112802309099531,2.3015139729435807
1,2,3.8801579756133933,3.8259970036187148,9.568155295365406,17.358392599427837,13.364938994139866,4.499009520757992,3.0188372982643403,2.268704123332199
1,2,3.730810450706425,3.8960848660622287,10.272333720393151,18.156702579801568,14.258790256906595,4.835016565113659,3.2574012559510757,2.282606463447607
1,2,3.773821201760501,4.041744572727309,9.937853229906139,17.93474567407066,13.545958190795076,4.638418973951683,3.151106664632788,2.2635567486045383
1,2,3.4752597930668068,4.099941164887954,10.27138481500948,18.004445033004938,13.74254743394705,4.731677284508596,3.219275484200372,2.2807947896573464
1,2,3.632287750872597,4.4196284088815885,11.725017068734129,20.061164855782753,15.516149110957455,5.282653770938127,3.386216422788301,2.3745034571949697
1,2,3.751984912188506,4.445792971631301,12.397616552152877,21.603145637510192,16.385695171889495,5.5645698398539,3.1931874572534418,2.554600737260426
1,2,3.642870833893758,4.032654146556079,10.869807842865574,18.91898368447096,15.274639359634863,5.689609276424287,3.0091089051204034,2.1211920065265235
1,2,3.5539083106115625,4.072734229718101,10.077240410785501,19.981846471872043,13.708951390167853,4.739072962286251,3.2317929490543618,2.3136393394174877
1,2,3.7238908333117116,3.5293607091572587,7.944852729056042,17.443228954146637,12.717039650765539,4.510104722972986,2.9935937986292807,2.5265540939046742
1,2,4.076826276585083,3.8893249756894055,8.164939461625902,18.162723214189057,13.10164014739847,4.617837202174312,3.398984939809708,2.800925300015516
1,2,4.104414416449172,3.845831262307199,9.224671066812597,18.93963917872757,13.90342130998608,5.167724840313749,3.65721108218473,2.873722964664755
1,2,4.434047463073099,3.9601415883894955,8.615971878855014,18.7295556524149,14.681417500732142,5.180869156300028,3.3390268165284533,2.857223520327351
1,2,4.851058344293837,4.272610088908604,9.54388287158174,18.197890673473825,14.711266295993324,4.728113617103214,3.0617026090021886,2.9377551805978244
1,2,4.7118507900232425,4.653265696699406,9.990903312691628,17.830340823304354,14.437396226016153,4.530055238456367,3.1094018152731127,3.2371304274820667
1,2,4.318531978398775,4.287999356434395,9.658724710164382,18.207376472325482,14.312588682306597,4.184888617425489,2.862447128104671,2.948507901351508
1,2,4.580923378106704,4.489498962432303,10.370633009453629,15.845806979168891,12.189527703397628,4.201190561585813,2.850105744597557,3.074003031162782
1,2,4.553639015228987,4.36973893566654,10.942766773812064,16.7708512461112,12.276485412365528,4.486894412498934,2.7214610415241873,2.8444332190417345
1,2,4.884544612909378,4.727577770037094,11.61466292749426,17.297743168344233,12.479902904263634,4.04636856112988,2.8103754506271583,3.132362260213982
1,2,3.7630928828784613,4.051373638037343,9.575624875469394,16.517103988804102,11.62134912613776,4.364528771009104,2.7855880447314636,2.678627642812656
1,2,3.759481245652569,4.207661465369613,10.03018550454531,16.557236770564284,11.567118600399638,4.297695497819566,2.968057953747991,2.7621714525113297
1,2,3.8871470965592683,4.423010264442537,9.871335623031381,16.443034581484135,10.748682588435004,4.420644458892883,2.863705610790599,2.5677260828207964
1,2,3.7997924065434305,4.308151781425269,10.661001302602031,19.315959124252362,12.441895983421611,4.655855994782192,2.799470951242552,2.720443598219975
1,2,4.14496623253062,3.6362763833565976,8.121089204321505,14.010377417243925,9.495477892849085,4.075977061482247,3.039431558939627,2.921800778635163
1,2,4.0624304740886314,3.813885833270824,8.91504846267017,14.838937478342704,10.467412842854474,4.069437064513617,2.571937518365677,2.5707406531909385
1,2,3.694350003330939,3.448879378223956,8.892381497926166,15.243824619547695,10.22880604097889,4.5389718978163485,2.532399286977138,2.605968191650528
1,2,3.80501809306931,3.7421730076674664,9.42027149922213,15.967196862994035,10.313421861304786,4.356922835847472,2.5122627271917723,2.832335423127367
1,2,4.147207431095404,4.019803630392276,9.958484546776011,17.303935937277547,10.406085733999069,4.304488707816682,2.715568753657449,2.8325286427815874
1,2,4.40226905966144,4.121418797405997,11.6038634394449,19.78972320545877,11.829784950589138,5.143729249319378,2.801158086889129,3.0398462258049914
1,2,4.6227918640436405,4.445218007952691,11.954932493514596,19.921300524238696,11.799534787473169,5.254755708517162,3.020005101556337,3.2416406827028594
1,2,5.112290228420681,4.952911886934142,13.09612326465638,21.267957309584304,12.914352268817197,5.511162148555817,3.2242111793922534,3.47384398870294
1,2,5.193196327449884,5.143045495422749,14.342381482907838,22.799742741769265,13.680683461326577,5.629320822811939,2.915190375071575,3.343156907752522
1,2,5.489202927811134,5.369656528749021,14.488836227043441,23.86948871453632,14.69366376133538,5.965483117464456,3.1048440007779785,3.6655232405248883
1,2,5.415296630141967,5.6116377691490085,15.038124563842555,24.578205972123122,15.62763136268984,6.142683039093272,2.9163661342582463,3.5268926521068495
1,2,5.8314161395944835,5.531112690400753,12.912450407554399,21.785690795964598,12.879102489613729,5.661931423945137,3.0704460659235804,3.7151371648431986
1,2,5.369384613201165,4.95660275116807,11.959586935576102,21.18426179636,11.884252437699738,5.152533335973199,2.5879503163905704,3.2466171743227767
1,2,4.686966203773052,4.561226712610692,11.712482082029641,20.856896880166413,10.235084009043025,5.20154712036774,2.9534942541966145,3.053691123946525
1,2,5.303735621302788,4.625355205652743,11.61577677254816,21.997314692690743,11.548324423442798,5.64063482457622,3.180509115192207,3.464632209023673
1,2,4.889068926275501,4.734836641870811,11.67130955731193,21.836865498917145,11.749126991163974,5.714954974827886,3.1739493904071785,3.2391210990335684
1,2,4.706671681644587,4.353559311783578,10.622708935775352,20.00642799773094,10.434582082221944,4.836625953378771,2.545721781625304,3.018809749466147
1,2,4.34968391406158,3.8475756155089367,9.394184444037444,17.99556835628383,10.217526456486581,4.543736053644826,2.804162535192697,2.8771348209867766
1,2,4.41946327466853,3.838699428015222,10.745585151784297,17.79653965290507,11.46596268661789,4.364968881168261,2.507565682085512,2.8108519131763683
1,2,4.216317341181725,3.9381620889852473,10.504841291178165,18.676994141453783,12.019836183152574,4.73457720284986,2.7271352866151166,2.8936441221128764
1,2,4.498872714517632,4.2903058298447085,11.151785945239562,19.29313296923596,13.053100686464461,5.358136813687525,2.8055568015568526,2.9838881040733325
1,2,4.873523536951684,4.685945071545715,11.27957255955097,19.91213715727994,11.969691055765072,4.84381098708451,2.678526173894001,3.1509474024709045
1,2,5.011958424048464,5.002858067272695,12.165800454306783,20.540709508263976,12.28543651354403,5.081196773079032,2.632412119351684,3.201334009617616
1,2,4.684038801568841,4.566737835559456,12.273589859080541,21.94344203072076,12.402586487577146,4.761920525054824,2.5070172450762835,3.1517028728913026
1,2,4.8319446218681925,5.010085014500124,13.05292156924737,20.08274032735865,13.749156493428886,4.478360156922349,2.7843540441559225,3.079964721989135
1,2,4.605156569451134,4.590281679576664,13.165733263530756,20.47374340917238,13.894792746021153,4.522870230993482,2.8439654925682585,3.115324121988647
1,2,4.819173031189169,4.621078732465418,12.350507176325248,21.171279380683824,14.46354761676269,4.618894626210604,2.827011245470183,3.1216207073812594
1,2,5.383413702510173,4.713846490826497,13.48429700049273,20.16612605432704,14.381343610776794,5.033629310311226,2.900139744828299,3.2550758480021202
1,2,5.225974074553028,4.570208202027614,14.655984394885111,21.938329357893174,14.760107752712816,5.3694467667563295,2.958953285802336,3.281024997947865
1,2,5.272839768137241,4.4796790536239826,14.106269421849271,22.614791806884707,14.778123785212399,4.94993134016024,2.81050341322866,3.2655491731022006
1,2,5.876557278302268,4.844273176814351,13.182363333080664,22.157824418914622,14.596240248154183,4.792221706240258,2.929565163468498,3.5681065483182164
1,2,5.358713426654216,4.417369539516946,14.019520657868634,23.534001460041257,15.579122543985797,4.412597132178029,2.9499273488162387,3.355860172297327
1,2,5.193337603247478,4.440627644218432,15.042761372638687,24.73252315753131,16.37058629859678,4.795776534997512,3.0480438383878465,3.5170823262130257
1,2,5.382051952939242,4.755937533325293,16.128800002292873,26.631958941846396,17.366969273822402,5.374164676079721,3.1695220377133455,3.5295651546067806
1,2,5.151403125080768,4.442164118296433,15.660557517506339,25.522119432072714,15.877993490398627,5.08991523442194,3.1505268578587193,3.526860563138145
1,2,5.2771232021410865,4.879411942855622,16.342191250087954,26.118745338888164,16.484001541991717,4.895117391178973,3.1148844485860767,3.5763152445887427
1,2,5.061936961507067,4.564715283476283,16.6837319325429,29.009150371047838,18.21977592958969,5.147683885860826,2.828567441442174,3.558178258424167
1,2,4.935086772061862,4.520220429200072,14.79341662287852,26.17206797042012,15.966851514139965,4.787729241565239,3.1996273865261173,3.590157787185127
1,2,4.5121850145220606,5.006782518472142,15.6305087486539,25.900044242872415,15.6393831280093,5.104104944997364,3.3396310946182566,3.4641425876387992
1,2,4.523999205301203,4.3264166867317275,15.250789000440916,26.84055509276094,14.906783978477712,4.650281608799138,2.819516839615237,3.354151977831639
1,2,4.834504421327938,4.304837820611841,13.385769655333197,24.699629457517283,14.524383190479867,3.977688690482758,2.9387554446128794,3.3724769879837977
1,2,4.675912939498584,4.235436901693809,13.48256408884177,23.944917697057033,14.005316740589215,4.1042405444273715,2.8108785065480326,3.1442023259524974
1,2,4.616478758071896,4.342348394988962,14.29802966854195,26.00141476857611,15.147197288608767,4.251375177214989,2.888934902838434,3.2117721415143725
1,2,4.572934460633337,3.77028205469485,11.969275573688325,21.892468946649892,12.546460833604387,4.532365735813463,3.151466690488715,3.264104989468084
1,2,4.940030874640227,4.062392763009585,12.533816777281334,22.34285462548493,13.891676562094666,4.5819140894510815,3.1144528765838637,3.5378739797562075
1,2,4.6644306408011085,3.5684388822439903,11.687106729078314,21.526455994901532,14.050080521177744,4.731449731917101,2.764634627599754,3.0241127574041715
1,2,4.358623686576905,3.4132861746891736,11.892999042791692,21.032207140679162,13.498326474506602,4.512119044909088,2.6187467643894977,3.0805097489504125
1,2,4.4331621119092945,3.7581631765457333,12.774814895408943,22.32284070555816,14.077172546963034,4.858815946013191,2.8418810361181808,3.2425575836484346
1,2,4.637401519014717,4.0872597046766925,14.20072213953582,24.529317152619196,15.606986279377491,4.983677412193703,2.937954275395631,3.0883308208007585
1,2,4.9323159480173375,4.272499449446706,14.704312942381895,25.015544109484043,15.697006336082778,5.105802209698914,3.165357377450306,3.399339920018548
1,2,4.533367940205573,3.92952775562163,14.68051695029305,26.536073735900356,15.424994690590037,5.937861884136913,3.4821891890071406,3.0126870420528116
1,2,4.77283087973157,4.138014984679153,15.348205782050021,27.140606792355346,15.724576978252609,5.211379374238746,3.238845308235076,3.6193990772893536
1,2,4.382448504094188,3.6532203943000607,15.540966458470685,27.287860906387206,16.330718981318334,5.124900195985453,3.2840479715283184,3.3945097769999655
1,2,4.434006935540802,3.386445893310465,14.744902515118515,23.24835273158575,15.3392212638877,4.873882182506834,2.8937149573925853,3.092792764692561
1,2,4.574023050764969,3.445137649440722,13.921510950534211,23.825937928572056,15.194300299465537,4.669723377295716,2.8357993441355314,3.2010654784101846
1,2,4.649330426507429,3.875064493989793,14.287204569193124,25.82669124925779,15.651009562679523,4.66550328252303,2.93557628687671,3.3781253483974525
1,2,4.3131674850333415,3.6911202601305524,14.767691035722853,25.491244610814025,14.879855440488885,5.467786860288679,2.7815050665160594,3.11678146247036
1,2,4.238861979784934,4.0042421371831685,12.75859997474092,22.447675313264796,12.611084681044078,4.9475688763727685,2.9190178348231153,3.1608583161157333
1,2,4.001189898578325,3.9449963773144803,14.302275694358906,22.935858678965303,13.529916107682967,4.887661849841644,2.9457984244069753,2.883117898669755
1,2,4.520125971136299,4.005689220834066,13.223932113686914,21.50130239887643,12.560522699069349,5.194490313849224,2.8724396291334506,3.0434639963035193
1,2,4.182480120584305,3.9780153368312066,13.19792539125719,22.2735958562358,13.17900708362079,5.725315980885763,3.095324067989504,2.981278506574499
1,2,4.364898650534306,4.293963263690803,14.043446899769846,22.73361239764268,12.545336233461523,5.438527597114022,3.0088166510653376,2.855190812715322
1,2,4.488846546017643,4.617216923897748,14.466714916523246,23.684264896479394,13.392318614151046,5.893630376778226,3.144859976239862,2.8872546640922128
1,2,4.519635140347754,4.41400861857501,13.637589030166028,23.31947594650415,13.823096153771063,5.128116341048665,2.6649490514912006,3.08350536986866
1,2,4.677739139882667,4.470294157414797,13.805779888962098,24.670925413765357,13.266017219639101,5.08043602131593,2.688521408181163,2.9530466267880984
1,2,4.69521995871899,5.027327086568252,14.226280049561248,24.78517641708346,13.716853671736024,5.171781778105421,2.846265299921931,2.9670322106117575
1,2,4.826624419503657,4.7900198403012455,13.591497396767076,23.120977655264298,12.26149134335588,4.790576182555446,2.824726133571002,3.136517107894156
1,2,4.871777920874945,5.134347013638874,14.449695648060985,25.562470512093828,13.941891525540651,4.981312893553603,2.819240063641169,3.3593675845681865
1,2,4.447782737183659,5.572728972664004,14.340680264556239,25.08052822316071,14.893452839155005,5.224424850647272,3.0456774695479543,3.494939140428121
1,2,4.6344580442639955,5.359334936398695,13.872408123573075,24.785155852335812,12.056838208276057,5.145026129626402,3.3066332046487594,3.5829317364005733
1,2,4.6206640754011135,5.56154748881386,13.786794919898476,23.531576448557928,11.597645422591885,5.099812976266642,3.3065038925116834,3.480367113289079
1,2,4.968322304953003,5.499850106563372,13.295708457598796,21.11617808724972,13.592575791167175,5.536544438417516,3.6966698606554993,3.7491566982336235
1,2,5.314106617077827,6.040892313495029,14.395567837372582,22.829532690698034,13.680338769845951,5.301308777590371,3.6567948836369664,3.8286521399926583
1,2,5.570706128953781,6.438545959904756,15.616900881146696,23.138098770293528,14.309382328567011,5.765209398880847,3.8743059308160452,3.812828115160711
1,2,5.126880502225474,5.798789323443047,15.993164687077773,23.71130260640358,14.040420813379187,5.761300907506381,3.49840597153882,3.2986899060079993
1,2,5.554912369766922,6.329345881246999,16.848948673123157,25.32267978510566,14.499476025561565,5.976434456354125,3.6182230325123275,3.66022725370324
1,2,5.3669732048054675,5.484851144048622,15.490343558112624,25.749068293998867,15.332424694919183,5.822003226011759,3.22552391540518,3.387091815293655
1,2,5.277982037746316,5.717476339349722,14.794244592478085,24.673418082638825,15.148606976440183,4.963880958437313,3.6312061519572905,3.519387872742333
2,0,6.342009209157934,7.270352798499872,17.750628362209323,27.826637417593272,21.982846132657443,8.184112323106215,4.62655139503608,4.580817592660808
2,0,5.901317628636802,6.905184035214265,15.166487335383893,25.160345431019973,22.824512078039564,7.426664589024875,4.255394864405635,4.10836682148658
2,0,6.171908190779208,7.114249315869794,14.669861699322416,28.798540220388507,24.311993662691577,7.980107526008434,4.874436988093216,4.512368318606758
2,0,6.118110315550057,6.566066715129164,12.685583845032186,24.732672087934958,23.45796889644933,8.247966433901041,4.905972847097202,4.390234604770927
2,0,6.265220192372741,7.435395551713596,15.438019101321283,26.611393476377824,20.979699611304376,8.704744776565391,5.519070607561102,4.619666435747519
2,0,5.13702745149747,6.109176176008642,13.412173781928809,24.99728754245749,20.213683336235867,8.344997763121142,4.995591967920147,3.942967007086006
2,0,4.898311617650169,6.179718404984303,13.47681642697071,27.430287249204664,23.059369768124323,8.47967672387673,4.778099918293519,3.7617471787439944
2,0,5.5599395174968675,6.638898569637501,14.27308405920058,26.669620271871565,22.835075139023193,8.962137295634717,5.091003896221865,4.125758630552717
2,0,5.04178755038701,6.015030236906441,13.966053938357689,23.907658115183754,21.896634512964365,8.842225849612513,5.23412215555053,3.9964816398483864
2,0,5.291947964714346,6.073352012724486,13.88340428501271,22.46531436146334,19.177851758342065,7.770893044452915,4.946345190456981,4.036922936538632
2,0,5.609041682093352,6.128897029092549,13.607881771556398,23.819511704988834,20.879847665566434,7.687376221086676,4.6523655461478075,4.129191313883086
2,0,5.310172134146785,6.0644526840169,13.135320526800975,23.075344921122657,21.07909601303946,8.200217896126674,5.09804405529476,4.227961039740712
2,0,5.582996017993507,6.603860424518967,15.201013888676625,21.91512128316422,21.176848922690382,8.468045368490055,4.823785923353039,4.249244605126785
2,0,5.6996910944133345,6.7529567332815805,14.946083592980825,25.1739740524523,21.125494648529475,7.5794803006804505,4.782303946449112,4.675544373210394
2,0,6.250243933326843,7.590484954692266,16.552446243197164,27.101849569301283,21.46418806518547,7.635217257527712,4.991899743475003,4.798943017641822
2,0,6.515210202326925,6.658602289509328,13.501650493573631,22.48649604164488,21.31524843139249,7.952438973048536,4.8871215016486325,4.655011762233905
2,0,6.906496165144427,6.613858284523354,11.811774134878513,19.599983070220972,21.640084741581568,6.687327882263566,4.5117728333431755,4.85116958043332
2,0,6.006601142220451,5.816081096496894,11.219749449390264,20.730224645896698,18.724898895220146,7.228516709055243,4.470120115261122,4.260513578995695
2,0,5.093309494200288,4.6816639117263925,11.124859426803832,21.543367742585207,21.14224374775684,7.464481284737303,4.289953079836375,3.5448574207109713
2,0,5.22347074954496,4.655859177357899,10.147368487163051,22.31509374061291,18.70730436125692,7.259257013420561,4.323957163039444,3.6527883717475222
2,0,5.235941987980094,4.799150452285932,9.627648724596606,22.800543586530925,18.19064698123486,7.491554580971644,4.335182135548415,3.7471248363143683
2,0,5.14078760183524,4.896808741136789,10.433191082863123,23.280026517820716,17.040995256691627,7.195093359348322,4.398232021372903,3.920593547297263
2,0,5.628172745554098,5.393145584759519,11.163404148611425,22.786408550146092,18.82823437187146,7.341140875789678,4.437555156891556,4.084975396963276
2,0,5.862065599043011,5.46076896167122,10.682801306673639,24.985303005581287,18.42047719121616,7.649321473681473,4.708819599440044,4.264274171613859
2,0,5.866577517869872,5.255180772862524,10.132726922606645,23.865043974539287,18.547145653070135,7.004777825940894,4.416981335505412,4.006778484544694
2,0,5.6486455102219955,5.4881362739684745,10.850624129958684,21.37581860616227,18.921833042870915,5.789813730206909,4.159359194087511,3.972458440222586
2,0,5.791178934587931,5.92188070626728,11.777046312166366,22.36909486655209,17.834669842382336,6.256216852799395,4.444827572934079,4.378804109480905
2,0,5.92077206643588,6.391262990090344,11.106906325816187,21.79690902021087,17.16044113872848,6.202425163008573,4.584826330908877,4.551980878920004
2,0,5.80810568606004,6.288829002133186,11.935637602798122,23.90402371578238,18.838978488225898,6.20281665485246,4.496550663361325,4.417045057076192
2,0,6.096260304581368,6.34732766954242,12.459764815933022,21.917613712455864,17.809436661467466,6.768909172387503,5.080243512834496,4.6266862342557245
2,0,6.312327185236069,6.019806295112398,11.071368357899397,20.632055991473536,18.317777773937877,6.814071193465519,5.074213447699613,4.448107829087151
2,0,5.7086736422797255,5.483042638439399,10.7771840732181,21.027989442463365,18.992591491882315,6.826091002841357,4.847397071767045,4.287950999198515
2,0,5.751910667908678,5.4781055548863336,11.750201434409183,22.102320830619508,19.34094756723973,6.671482964689754,4.79224979244412,4.5041449631689545
2,0,5.769304061356686,5.824820690129341,12.967953364130066,23.51917661775355,21.692727199110443,6.3851111873890405,4.864922129354161,4.564258627586608
2,0,6.043561906293699,5.463607586339007,12.107395601015961,24.719442582723346,20.471522575462515,6.230647285332839,4.609206493974716,4.3209383045383
2,0,5.463373658315451,5.759682707103236,10.329956831790469,23.165134285819143,20.88147780513079,6.015876700087823,3.935189992362299,3.863919903882513
2,0,5.6487680786515595,5.719990999063227,11.006746909155048,23.174927777365117,21.07402237252254,6.2355255507266545,3.8694997154553996,4.276838457370897
2,0,5.482113571130271,5.923264996622435,11.809437034610468,20.630597934565532,19.620932438328705,5.976598294389644,3.809613932362159,4.249712365226078
2,0,5.680347480131689,6.066008041014855,12.227217347839906,22.706218780049984,20.627359140031256,6.452782761736408,4.1452892830408175,4.573524299214303
2,0,5.574517877835191,6.484946452628022,13.455348737052205,25.8325709856257,22.216500660392278,6.9419567567886435,4.068935695286836,4.410910603054376
2,0,6.037240243625904,6.601639555787039,13.008560402450426,21.567674481188494,18.726636626518538,5.744102099030944,4.1545097691594925,4.688802948661962
2,0,5.764706886644224,6.405628348395422,13.715254387398428,22.824014034694137,20.34888981004134,5.617904960468048,3.9259934804740193,4.5111757098620995
2,0,6.180013204815259,7.1648730355008095,14.250811485333257,22.391880477858088,19.849352781397638,6.075726555578032,4.112610250084392,4.885416359171301
2,0,6.588051421815455,7.348508371695328,14.501188533053314,24.24906422356614,20.91847285224339,5.753561429597499,4.287792688812721,5.229233086790875
2,0,6.3419913405594395,7.042480697770068,13.42080177656971,24.92339208736905,22.16326435307266,5.427154991652855,4.042864708448625,5.063930556719495
2,0,6.8151156823623005,8.035196752123289,14.110481188357735,23.86576263018144,25.01065288884858,5.984259332562556,3.9449586863863257,5.132889795076273
2,0,5.435472294049761,6.735408432994816,15.155115150760679,25.822040801711196,25.31469095112129,6.568990051068792,3.511355445776759,4.031939921712197
2,0,5.3267169410061666,6.91281735403961,15.46095962246945,25.333611283827896,26.192463126055266,6.332410326209375,3.5778855859575946,3.8925351248182256
2,0,5.593724181945336,6.858054777290844,15.785581203202913,25.904349495189695,26.422797473669874,6.960557377455378,3.673241829536965,4.074058128438736
2,0,5.687061357634792,6.98382478720959,16.540760533572513,25.967491255144676,28.726161154995868,7.161585209599307,3.377538168770992,4.252613580467029
2,0,5.207755225317243,6.57633319837777,16.49060965842142,26.47462646975884,27.953447096696436,7.302008248366261,3.2603369253178327,3.8842027831706645
2,0,5.441991932423764,5.97008208808745,14.742520137651605,26.09815495328555,26.643521326048337,6.979963203599968,3.1430429068588523,3.6939289862957367
2,0,5.328959864626067,5.894037250119781,15.192768736174344,26.182880589281012,26.991151733833714,6.575017508031408,3.1317856651280396,3.996386317601604
2,0,5.344021967517319,6.000125045458789,15.351565251556977,24.277652229693537,23.882638582369754,6.273180340674986,3.0884291937789548,4.2572834609285914
2,0,5.512442182638451,6.657948842066306,16.89971013647152,26.574738912115198,26.01946497191376,6.5511247178165375,3.4579699732626556,4.086624369064954
2,0,5.403252735675496,6.602731300467076,16.057146297224243,25.247071507513276,26.209436616190054,7.0842848236846,3.4362410553013545,4.052462800626264
2,0,5.234262908318277,6.259029269054171,15.661541836750771,26.26318491061187,26.484383018123367,7.210462086044771,3.7902151040797634,4.063715199184333
2,0,5.430099449033465,6.075505910493045,14.577926763064363,24.769766842311405,26.759357252917095,7.305756267281794,3.782951147607821,4.164186667872358
2,0,5.379720968413812,5.727288834495182,14.675614915334922,24.29364326365597,25.708028971010243,7.124212993321583,3.4452107770056366,4.06370386109779
2,0,5.99022270270849,6.111974074492466,13.959556014897526,25.482918253285774,25.397984559485764,7.340974502074175,3.8519789374801263,4.5429166530193665
2,0,6.419996677204772,7.655694363016082,15.422124030274212,26.533349275428847,26.26266086551813,6.747283146807658,4.507602394907303,5.0988374609485545
2,0,5.688240008386453,7.012109783001729,16.862912454313438,28.063225443500667,27.842328570022893,7.141917307852784,4.445851587415652,4.538258286273521
2,0,4.441324664882338,5.3621453289838685,14.211906149995794,23.965081515370247,27.738526191182245,6.825786892460339,3.834406705241985,3.6341957086560046
2,0,4.610532210790594,5.39466191901237,14.250624062990095,22.748296744027705,25.90240990766293,6.753271826291394,3.651269423167842,3.5634802539452743
2,0,5.0911232766989745,5.278706606603492,13.846078830847569,21.50576951440339,19.510979635969115,5.4577445881754985,3.7044063239298994,3.5420772908477973
2,0,5.106603209360133,5.56756516777736,13.500084586344462,21.66595387900328,20.667767998356254,6.192596343643859,4.000354930380877,3.934539419931255
2,0,4.570173091551079,5.3755262323514925,12.39544878521502,21.63321055671569,21.999381396666564,6.10830886967163,3.831317006626256,3.782863465324175
2,0,4.548122684370614,5.374517359731922,12.224053441229639,21.62028629122489,24.532467333039143,5.641644925405036,3.6787839796036463,3.7277024623508987
2,0,4.5583098404156015,5.508871874764857,11.01451020874453,21.50305311016859,21.806423471865777,5.046361215817156,3.387395982848021,3.533251108405257
2,0,4.7280002540524855,5.148492039020377,12.315952315419668,23.259290864798842,21.66511501841744,5.270555348857454,3.470033193224327,3.7807459614400387
2,0,5.338406155235786,5.396929902173152,11.31915487319607,21.24112819927889,20.56750820162741,4.770498425205771,3.601858756639993,4.065356293711664
2,0,5.198932777777147,5.751156138234892,11.523398456556924,23.71199598141721,19.86448331364898,5.161927321902601,3.5348221810856115,4.149167356248645
2,0,4.988471187523151,5.154790107140398,11.490912001689518,22.7161152622164,22.341882801808204,6.005587540824617,3.410815602310091,3.686867934713439
2,0,4.280932874081401,4.838259947050425,9.491139219519608,20.92906774822694,21.52141638317638,5.727031877199083,3.4316129813693093,3.2995743357966014
2,0,4.651771500991487,5.10784563866245,9.995154963013437,21.92933598817494,19.396750785814323,5.055936017574375,3.218999607551317,3.740875349550822
2,0,4.358226944016149,5.021964030046179,10.838927241181638,23.15328133703806,19.044790081900953,5.499988788224646,3.2930131298411314,3.6397136473881617
2,0,4.692961648328271,5.300957182753767,10.7815989963576,24.810285353495626,19.206518922552995,5.466399916409032,3.5607824087023823,3.992039031404737
2,0,5.030848208448837,5.430224073144001,11.579397820085818,23.54985922486353,21.508738157198,5.989614549329495,3.716063245388008,4.132531220539162
2,0,5.406978204860911,5.687412297754344,11.129415095003855,24.238256281496923,21.34109563556934,5.7408373836905096,4.028528549429872,4.33263790553018
2,0,5.576031230977518,5.603854653010776,11.502561019475872,23.66004714539347,23.91917633979232,6.215782967515521,4.12470019277395,4.66874685984776
2,0,5.961070887526472,6.0944650629255035,11.792511817404527,22.499821660963004,21.925130884782842,6.758059947611545,4.621819104626881,5.028798933267231
2,0,5.308929330462734,5.731699674600348,12.102851991714548,24.915136342815508,24.839600050510523,6.480662909424924,3.944325287685365,4.345725938885481
2,0,5.6289267786764885,5.503173282862169,11.050046146851587,24.594763971942918,25.21386807612768,6.729186322188042,4.12203791453716,4.644064887381515
2,0,6.043452641530702,5.956676261891862,10.900656299277774,23.787727482978053,24.662788294233724,6.877858452358472,4.397728713961204,5.033292231330777
2,0,6.745701815329518,6.287564386045818,11.055405675264913,25.977493001895162,26.06262584795031,6.658775884454909,4.457332831798349,5.374967692942439
2,0,6.893828163519279,5.870276150743218,10.935076422032818,26.53805611379288,29.503442099947847,7.015130914509212,4.405841505843502,5.41879710802966
2,0,6.964563249779815,6.128470914054736,11.923791958126364,27.54247884894312,25.714428223033117,6.397320637058714,4.627878386267736,5.5777415351702455
2,0,7.081699575085757,6.635245305122524,12.744683325167573,27.73610681912452,22.847887557425956,6.86396280811847,4.751408713725087,5.751369583870795
2,0,6.380419465185425,6.502975244222718,13.41333142479147,26.013622925094772,24.660472751786795,7.459139595646734,4.770840141084998,5.416234058956434
2,0,5.5199490580059045,5.994736107564378,13.289268212273333,28.09886034519419,25.749078426415736,7.574289154999403,4.441527706276241,4.889859103528849
2,0,6.234103977889427,6.412600059261598,13.6590129474038,28.257902179958926,27.131093207373702,7.843282698919225,4.627577621853092,5.2685213476924915
2,0,6.2956604190816705,5.98438956904935,13.042494648242691,26.188615099492704,23.53838673574706,7.405827896738764,4.355778080519059,5.024582174547424
2,0,6.220403624813272,5.764078749136734,13.373303206098205,27.060920449928773,23.45429012901845,7.124607451454558,4.328432839915192,5.213274264244817
2,0,6.445336391950574,6.074577760524558,13.883811632505552,27.215063370802028,24.141949256087077,7.847411625961808,4.525050417213175,5.360765859427961
2,0,7.181008836946859,6.453636619285925,12.697810388339489,23.227311394782397,24.700557379733812,7.663520362271652,4.253653290034158,5.287420356998467
2,0,7.199423084430575,7.093948325065189,12.990217068768748,24.595784846096187,25.57220562201496,8.222397401673522,4.61643967104595,5.675258731780616
2,0,7.236477827532553,7.427959185895754,13.923606433808919,25.572947952131273,23.717427735479134,8.30178025344399,4.5620583521381795,5.654631326441782
2,0,6.336099113643134,6.516464920960564,14.278409833378948,26.358158626841988,22.840200014409696,7.411926409078156,4.305352130963421,5.173352753580595
2,0,6.753306990763543,6.715288507509591,14.47950799723019,26.977493340562354,22.576023273096595,7.040069253402985,4.1478055909585585,5.3496656632454105
2,0,6.339857283074491,6.399457480837784,12.89462508999993,25.636946804623093,24.339267833795482,7.907595995072904,4.2673176175217025,5.017116165437334
2,0,6.14323086391502,5.767926988089736,13.13780178002497,27.72943437422191,26.42515564293857,7.271043587092156,3.7909534987578186,4.687415776490103
2,0,5.649434388026392,5.753180148728509,10.617266027001248,21.2551960893421,23.321309229178567,6.391956929323779,3.8430280972177364,4.235860259996336
2,0,6.062949084344718,6.32275558128558,11.80458775754193,22.789513623087934,25.397892627183438,6.569616143200697,3.757833734687149,4.372188406372317
2,0,6.181019011741366,6.536969009553059,10.410107384558987,20.03142621338754,24.755795071965803,6.8282286010986315,4.057097740739379,4.818433498542743
2,0,6.052149055120729,5.519595609364025,8.619807413383965,17.950992950945274,24.840409409565115,6.5574136406253585,3.9497362133939986,4.319676186713887
2,0,5.961844495927917,5.47127539825825,8.712807951544539,18.386539536204992,25.060667698378378,6.297555112981729,3.5703516396725914,4.118635726075345
2,0,5.8941718772118605,5.316996358748987,8.912741318175682,20.14928807641058,24.642662512956285,6.819596132342644,3.7212081202307536,4.220015272422655
2,0,6.0658218590557995,5.856940239795963,9.063909083846259,20.75720088003967,25.50326062493601,6.867107425141725,4.030265129879666,4.338651359756244
2,0,6.871102314945664,6.682738921866684,8.496873889117337,22.143247145748592,24.406481538272608,6.201200834287877,3.9614716599453623,4.576263274602134
2,0,6.523368102805705,6.500101327156027,8.564656449847737,23.69718509875931,23.909277495073535,6.075447195711491,3.8677135989512954,4.3275750254723375
2,0,6.891466216767994,6.481005839286877,8.957834561202644,23.6622543879872,23.233526455215095,6.721354466658654,3.9965449036862433,4.631085718549309
2,0,7.348613559753803,6.98134141857877,9.86302311715974,25.327281290849363,25.044912591881832,7.295525342219501,4.380941277363818,4.780461541252289
2,0,6.201388666087265,6.773817573887313,10.461157216137343,25.346249019168756,20.181418868254003,7.112526083405051,4.265337722949811,4.4731417468492625
2,0,6.148660081082532,7.0482354593234415,10.83900843078475,24.891859012842943,19.845408290607065,6.897970154137087,4.249420772776159,4.405955805890493
2,0,6.446751721165685,7.224639147139217,11.288830572808195,20.719888589696797,19.305037000796453,6.147104120699709,4.208215779910884,4.550941683495064
2,0,7.287036830500492,7.618516789743659,12.533156708939782,23.07169187412385,21.015678234412004,6.271420023022077,4.514527258184954,5.011921729298912
2,0,6.708933177187726,7.044834896096664,11.434888889400158,21.173943725210496,19.66752360985546,6.208803300829799,4.047065998409389,4.211320831071319
2,0,6.9699725786159155,6.802709179899897,11.377762525004913,20.43366716647314,19.317406756399812,5.541591420640271,3.6298784195006735,4.254128179849069
2,0,6.904903819845476,7.111986569558573,11.680768994807933,22.77147934948807,20.510728676236887,6.036127059427608,3.748173193903919,4.350224274427248
2,0,6.5685322874327285,6.809016646740382,11.17876971164531,23.945082897560077,19.34255575713625,5.873715778819997,4.089771705366148,4.082057714347661
2,0,7.023785842545998,6.6701912188798715,10.247933589247493,23.722973425656825,21.03302575061905,6.179841677109054,4.195516624577631,4.548580147116665
2,0,6.985026493848033,6.393989113898113,10.820625709052416,22.52675313446661,21.911766174923752,6.51043380103798,4.504195350065458,4.688884705807173
2,0,7.775995800128811,6.715885761293285,10.846199157962005,22.9722431157805,24.004587781233166,6.7057369789406565,4.830344302459435,4.974786667816011
2,0,7.190621140875055,6.226930748706423,10.554405583054427,23.508027526916734,25.574517009263467,6.902815316561102,4.609693839740068,4.799071275446021
2,0,6.310610524465772,5.088924866826378,10.560416013412544,20.86986097799696,24.027835533773747,6.7486370897051655,4.899579632860716,4.81412376251031
2,0,5.046783414862138,4.988299832781012,11.015508313772001,23.048235528679285,26.62334672099126,6.982689312865515,4.483262471231884,3.9148266366427444
2,0,5.520199258690347,5.788260515469214,11.084827292698366,25.344972362741416,24.258370509773986,7.174785883851076,4.5694470367701125,3.9940080825757494
2,0,5.605180838017972,5.492559324927603,11.49660238473128,25.432610856271808,22.908451617301342,7.819458263252135,4.738500707878153,4.235044249300597
2,0,5.624123262088779,5.648682890155695,12.154169482175847,26.434690006855003,25.755698403607305,8.26475341308066,4.681636774321229,4.323968200774086
2,0,6.294675818499305,5.565247030282042,12.166804150431181,26.003344123509567,25.675426103695763,7.537538943965476,4.227142098313651,4.164449398640274
2,0,5.81996304865968,5.603356345722613,12.512474189007932,27.146730275546798,23.07387575932562,7.033422120444057,4.011533795783218,4.261397786864923
2,0,5.360105317600303,5.714855708282,12.680857455929631,29.540057597737388,24.774138184600975,7.457923060948336,3.8965678594599837,4.1338394074303055
2,0,5.425494060090507,5.665811208490882,12.994230989565269,31.467867870253922,26.263017915042088,7.278808703850707,3.763271820956905,4.28161518776491
2,0,6.0580711232295625,6.116751981763817,13.913156088634633,34.140540544987594,29.386080181380276,7.757111516139969,4.1358666637182715,4.635113244364182
2,0,5.979322087417507,6.138770691320192,13.066472683909048,27.636893319979652,24.02386758022138,6.336193640979959,3.6635139159862717,4.443214306074236
2,0,6.015998647944941,6.199313830964782,13.707974365219062,29.18856936031135,23.89061586106518,6.092115074349808,3.734354595505828,4.305560575043216
2,0,6.15671813089116,6.301505081904307,13.636877692408357,32.12628682465719,26.171053624826097,6.344088090832486,3.7771559894635813,4.360370718967754
2,0,6.519123577475821,6.8114484804829445,15.440342093969198,39.722531560409436,32.45638213171003,7.106426791497757,4.056663624766887,4.886072456225724
2,0,5.5264425696415795,5.673948108881163,13.312248840759013,35.06979247071446,26.64822099174782,7.126617630949466,3.871092349884871,4.167521701379033
2,0,6.270945023910548,6.403343782604816,14.154455785244993,34.536779370041316,26.49398158008917,6.7982156905707525,3.8584765226771545,4.598895261935029
2,0,5.463319609330774,5.895998744129568,14.037623582413728,33.08627763653762,26.119522042452957,6.740775431497484,3.909461759600931,4.285882715938772
2,0,5.3030052122780855,5.886231551775143,15.084389729283005,32.42094151298931,27.976920436039354,7.479421674815325,4.0555878296905945,4.150539631669491
2,0,5.161491137636878,5.859156140538504,14.032643438463639,28.752115638461817,24.27660820614765,7.527278756227938,4.169366622361216,4.261279648275872
2,0,5.5248781950526995,5.566556766549622,12.305208805197573,26.137046567542125,23.763860659419404,6.735254124494452,3.985842563510461,4.278140707106387
2,0,5.368595408283569,5.583441020457491,13.084709175763658,26.30039641315284,26.34528441378053,7.079692478791094,3.8320754590010315,4.198745458971631
2,0,5.453133481698006,6.101197719556084,12.797949963117347,22.197315020676196,22.238707439683626,6.907981276723032,3.347843071124178,4.205784244804029
2,1,6.552983645006109,6.169071830271889,15.688188945520148,30.786053573430184,19.062356276049314,7.020718993734807,5.510741921697787,5.492364809711449
2,1,6.712993866577346,6.173016902794749,16.623376649968705,34.27513069360818,20.65149718672477,7.539737853703809,5.791942903621288,5.591940325042675
2,1,6.341489738550517,6.785323208650413,17.910682797004615,31.9618673381192,19.4735737079083,7.558186291478549,6.110347768496354,5.3914104651743155
2,1,6.43407981444821,6.436221909663566,18.467723015939825,32.98958593956135,21.01859231329749,8.010184014302553,6.097166429620502,5.418549907799371
2,1,6.913646608808312,7.0509272355713275,18.509782990765334,34.65850598245027,22.16111875175483,8.141619836040402,6.053824982657187,5.748755752645324
2,1,5.816844566449984,6.385520199337213,16.87270638111861,29.644606867627473,19.738531423929135,8.17896607973737,6.04213137423931,5.121906699426409
2,1,6.230955294861223,6.698900091900126,18.094245957991127,32.33316056244162,20.639086788015113,8.452014222053457,6.613371768771274,5.5810920173037895
2,1,6.812748911849406,7.275374056217527,18.959351958564113,36.206895533587165,22.80396130447201,8.640923591321284,6.388948176040302,5.54255361101133
2,1,7.2456850864066045,7.447174804444876,17.657853448902156,35.16487904950328,20.988938855530762,7.551242315203351,5.203589085708644,5.1603013943380205
2,1,7.467840180808585,7.088851757870774,16.945152265509083,27.94561221150196,16.472943100106406,6.478651558272808,4.294527680406426,4.637535367696985
2,1,7.2443707787516045,6.462718449050642,15.850527431707844,28.49970109310647,17.86907176334986,6.389594620410819,4.692073952124115,4.60463775420289
2,1,7.458665897744368,6.663177648181566,15.400210406371079,28.276124799568564,17.596537235451013,6.1882430338763115,4.87992090936773,4.542171096389433
2,1,7.707248210065953,6.619721833413629,17.162677568265902,30.772769219209927,18.905627298538654,6.5266074599810535,4.424304313927556,4.14662731465895
2,1,7.30982331758748,6.104106789666899,18.2550885680614,32.48988041778708,19.79416310960088,6.224925930316927,4.403768681152142,4.305237845975723
2,1,7.757906575273732,6.273364791739413,15.800717672390006,29.440179449543866,19.04915832595031,5.637421032660707,4.423322562313479,4.706166028893971
2,1,7.7073966037841215,7.2544494238669,16.11299552590313,28.32656452527958,18.346736713301095,5.232567236296906,4.344254796971461,4.8748092818783295
2,1,6.99131262070908,5.720673459742646,13.909930267221561,23.910366317423396,15.564997862629774,4.859937242316577,4.030273816853999,4.567675973408135
2,1,6.7574579601132685,5.893738815936356,14.064046423497494,25.665571349522505,17.113800967097696,4.948545824624641,3.9480495434555665,4.742279239691127
2,1,7.004901615367048,5.210819927370377,11.768423432701423,24.669247942889072,16.551954878946262,5.188582583493146,4.06733704398636,4.819553744555117
2,1,7.366011197384204,4.9318134538076155,11.569714953406896,23.382893381716556,15.175099542220787,5.152325419585445,3.824357433813671,4.961945297681418
2,1,8.079381122633118,5.270426172467622,11.744961471317659,23.36895518718091,15.950915403018604,5.5475352068292025,4.329586342157299,5.567078111250647
2,1,6.764305671077612,5.406226785968071,12.527354294504397,26.815947665774406,17.054565996966193,6.111974074024538,3.327323829857401,4.241598838367672
2,1,7.534982288127459,5.737200584352553,12.753577853812606,25.081132077585547,15.271132355919852,5.702660194040083,3.7817162746127218,4.44689639576297
2,1,8.0138368701804,5.883119965810944,13.418188584821223,26.480253635260222,16.696571433072684,6.0429476915960185,3.9968998310676405,4.9223933318764335
2,1,8.681402455381939,6.326291858608323,13.222913290113581,27.194457923383922,16.990146532433883,6.041420026875541,4.088662968996962,5.344431847444774
2,1,6.853947393224218,5.930149028465794,14.426468611942227,29.110160311733004,17.78350232357476,5.432674850418369,3.575873148570659,4.21111819794507
2,1,7.349844941803,6.115920047077934,14.77021123109458,29.46259645868576,16.8103201101581,5.089579030456405,3.8281258969906315,4.556605212548522
2,1,7.085439072347812,5.583052172463979,13.346091045403307,26.148159280210578,15.464296410986641,5.569635283587533,4.277202678822871,4.524117499259996
2,1,7.344412768137901,5.468128575859409,13.112406405568073,26.7223594806407,16.48773342093962,5.8847497422661315,4.0790781275538315,4.343633255535931
2,1,7.545300273672037,5.739828545713493,13.89664095574775,28.728636971388692,16.886720774134503,5.083274932421456,3.5486935976282257,4.425413997346193
2,1,7.99772670862688,6.077579415105863,12.722589852353442,26.527625827602545,17.22038839530192,5.38581621694964,3.6139858878696325,4.598484653729805
2,1,7.966999306863896,6.494435389795601,13.66283228915562,28.302484244395583,18.332809024315516,5.726847509845632,3.8757707534981094,4.235936759581661
2,1,8.363137455613591,6.31198768037008,14.953095176640378,31.195230175154045,18.83459639928031,5.8522072987826474,4.120354481889943,4.623389924866321
2,1,8.719924157117244,7.043585145901541,16.154908474973162,33.62826254091388,20.61678237171974,5.78566137999834,4.042241956633866,4.721079745419542
2,1,8.564629882425576,6.5721388986637495,16.043012875440304,28.835518255541345,19.447146179966357,5.376152300847963,3.972144114632567,4.838734152353313
2,1,7.547970673692758,5.009024910654584,14.095569497421426,28.80938088617926,18.95013971666671,5.266855492905696,3.8887971851820455,4.838162288153708
2,1,7.282492692959651,4.931765429810213,13.5040150035984,27.822660424255634,19.037665772200697,5.072705000325559,4.101148641489723,5.041988499377557
2,1,7.32128411638529,5.263539148278393,13.269695278398562,28.79156298304099,16.32420433112384,5.032840772983278,4.199745252418298,5.054253199653931
2,1,7.6851163744720035,5.210726408246243,13.504499562173638,27.943265414116386,16.46120367365416,5.066628174721064,3.9709269056127026,5.177403301056063
2,1,8.550287269709372,6.275266986053227,12.707262952631785,28.028163411949112,14.751893041203644,5.223816570068695,4.272305820356472,5.6609530461885615
2,1,8.013114496999645,6.4756130385906605,11.987836675763244,26.804153541144977,14.571013599309572,5.099311588072498,4.421501594646076,5.581035167297821
2,1,8.170492635376341,6.612995316701076,12.57653420460751,31.290002903004186,14.31205726399095,5.3078683733095655,4.448195989745369,5.644246561201645
2,1,7.800112225750797,5.644558172355052,12.031317287077977,29.195904743874863,14.997194983767827,5.519680437594513,4.313922050548824,5.284445330977111
2,1,7.452646279734021,5.780115931676168,12.821127317545361,29.68328880357748,16.082300460276468,5.997082739768026,4.01599428263695,5.123223958024139
2,1,7.623874124127842,5.461918313535016,14.018930428557598,32.06778158057935,16.94786577170517,5.733988959118775,4.164385371393689,5.414595399000365
2,1,8.086283320230235,5.718838406114851,12.545214604186194,30.196521663903074,15.169131636929182,5.488317048269275,4.344600721459078,5.782627598143126
2,1,8.806955107553598,6.352309157175581,13.747795502544575,30.277752292422488,17.21424652734257,6.155566856999787,4.037064687936185,5.632033194204801
2,1,8.626473792108534,6.817453619720616,14.033790138473483,30.709034072513177,17.81967256104986,6.451371509328001,4.282171458164323,5.694048314774589
2,1,8.48405201820548,7.1228756549184205,14.90526525904768,31.32393940712447,18.23896944608133,6.579668272128451,4.013450665103132,5.188612519646983
2,1,8.799536935597429,7.611428832615335,13.975889448608113,29.14244960790437,16.213852904682884,6.2504081184158675,4.428240804035675,5.701141642125589
2,1,8.787057887808794,7.247956049565303,15.647178958485135,31.20163540334225,15.607642938620112,6.111930157947573,4.230608309110996,5.739373746126624
2,1,9.63248746212524,7.2922818347737115,15.292664545764653,29.819145167328944,14.275102071586145,6.234917323306764,4.489861418342001,5.974312847783981
2,1,9.088928438199066,7.170783159198541,15.983691098813564,31.18104456840754,14.679976736699212,6.633040622742138,4.444961529834412,5.743279970957953
2,1,9.270550906897162,7.430393145568072,16.59447977293904,32.62145184126144,16.040404378319508,6.33564380255842,4.203969265782821,5.676228973192482
2,1,7.972600480304735,6.8091547370006404,16.186356344715513,33.532531065278754,16.644090122985038,6.17978203570252,4.441808982588876,5.1355044600355635
2,1,8.453828064495926,6.537418710723769,16.05862733774169,32.86430434460602,16.388814218369,6.393439440403612,4.158578172791745,4.990278385933048
2,1,8.16753924847661,6.67754684165684,13.921998893020373,30.21013947302669,16.6858809183341,6.247121339142646,3.8313730935320383,4.785592956123856
2,1,8.387143192023021,6.867225751889132,13.482969289529528,30.010856572030086,18.15514358646241,6.173272596509154,3.865709730716399,4.956536719643573
2,1,8.580611772812794,6.469162447855281,14.277549193653435,30.239708819408193,18.35843540432271,6.079896121045773,3.6173330959612326,5.135335605394719
2,1,8.362959131855806,6.80564681851163,16.067292035298426,34.65082218532067,21.096377797333446,7.282428135950493,4.201151974452058,5.023872313520114
2,1,8.347865853607441,7.406360245359446,17.584798224196625,38.26830359627403,23.25367813613002,7.7301140930596155,4.385433283165012,4.992593622618648
2,1,7.597805081558145,6.876389277502506,16.079923761981664,37.82486692515866,22.422905095610826,7.528756143303569,3.5461959533580574,3.9746246969256314
2,1,6.811929897021831,6.586071001556971,14.947759157986622,30.369554409219397,20.50759010523469,7.845777068407277,3.2816364456802924,3.3508486141024076
2,1,7.222978271868037,6.97658713804114,15.88867134223189,32.920734738295,20.809356578121896,6.964313552863603,3.443271188943731,3.712365287657867
2,1,6.544709767821568,6.372010491800598,15.40954132298206,34.97530154072543,22.110301600370793,7.123519521459802,3.690001550614122,3.5755532508250676
2,1,6.724518489238511,6.303489888773765,14.598841678667352,32.90625208950915,20.09810366186453,6.327345635083819,3.5723936793142252,3.7252264705784857
2,1,6.502057982998405,6.059502670572782,16.173921721308847,35.79757292352459,20.486667780160865,6.8615720363768995,3.834636747319156,4.106324767764323
2,1,6.795276279977659,5.838015596475759,15.729714807369373,35.38060042061517,19.059668277580478,6.528851834393816,3.4811952985542858,3.886176504328984
2,1,6.956396495025479,5.65828263022184,15.635756934276628,30.695618501549287,18.191285860909716,6.250581689499972,3.172655680248696,3.7358455931061116
2,1,6.757465936316676,5.443431290022499,14.239781671775448,28.241343571128773,16.83998199243737,6.074254073260843,3.1906550741341344,3.7622719484465286
2,1,6.495046758332649,5.190548636090045,14.505067022233714,28.431803570510898,17.811848704198976,5.865577278468819,3.211709878146206,3.4898979804412007
2,1,6.179913316568376,4.991966914367845,12.577260841949208,25.22231435595554,17.666172434733518,6.244044137279462,3.10211669682187,3.055239091162025
2,1,6.471021418305605,5.105844856296874,13.123257846508949,26.57717894545346,16.89149517843919,6.074469425194641,3.1452227260050565,3.295546993284374
2,1,6.4954594127003915,5.854743082899988,13.1347967412111,26.705715785312844,17.898483899930103,5.802999886412107,3.1714663894608828,3.767042463363689
2,1,6.648253827567389,5.482091108274155,13.106768890767299,27.00368869993065,19.75697028466288,6.423580862167308,3.276026546937735,4.0014318951002625
2,1,7.074916268245349,6.265255410354781,13.00041047089848,25.16146450293965,19.226769935051866,6.261867372045578,3.857519277137147,4.217941319910881
2,1,6.39227230687668,5.474145657551006,12.552511749502077,23.082384920814455,19.77768529446851,6.795883096850057,3.60832293115191,3.766641048977653
2,1,6.340627001802546,5.751891203435498,13.03453711049095,24.161253995331204,18.998984340673275,6.64559368261786,3.6466331468576967,3.540412850599002
2,1,6.196885414606369,6.2610348742797575,13.2252506635273,23.885867464644186,18.801007935436417,6.535731595793388,3.8684117823862874,3.837706155264461
2,1,6.082191240446285,6.335816882521344,12.891378416172413,24.9635755984558,18.45184226789492,6.052260316360505,3.5453712566177837,3.461931204871037
2,1,6.099247398602043,6.313237248942708,11.752615169152579,22.477144438812463,19.261241462881994,6.7372815853489705,3.7569786036227875,3.760706031283418
2,1,5.517287133476129,5.818137706207873,12.038553225173905,22.85499134188404,20.383335411805284,7.1761249957978706,3.6468063018611794,3.705607575183903
2,1,6.3862874989534415,5.927382212723302,12.133721921711041,21.81309031328318,19.11375755862314,7.398308463232598,3.9031197372458104,4.055879668281969
2,1,6.380220881303623,5.961676326016858,11.746692105472258,22.28405297184371,19.367040166527456,7.37708226252819,3.6310554948528364,3.8971719025418836
2,1,5.51311127075638,5.843087880620431,11.618290907803905,22.984762438078874,19.692165271230852,7.231977562321194,3.8252700178037693,3.39495902658872
2,1,6.483580241839521,6.6965266502916885,11.836816861710233,23.001613447064,18.213342671243574,6.959305585561967,4.052860823448219,3.647063771343327
2,1,6.905080158484988,6.800397553276417,12.754433595377314,24.108527610566394,19.031915249075137,6.964768376376598,4.098728751699172,4.002506100915786
2,1,6.412881659241801,6.981043644179705,13.856152298191596,26.738068930741616,19.769843209076274,6.734941471616854,3.827694770447108,4.132345695949687
2,1,6.433885506136648,6.728367928129421,13.196421161641057,24.36427425903952,16.992763340448956,6.663371277076037,3.7917816840370113,4.234187950624935
2,1,6.919949084831444,6.829029369424021,14.450331691516245,25.366568031319943,18.323070115676014,6.7898239896552175,3.683883132318441,4.661729060731603
2,1,6.422973215542555,6.138804911587901,13.428578781399892,25.24532634198646,20.373434777621014,7.243578907316537,3.9405256397429667,4.514607045474871
2,1,6.68264581249318,6.090532500998509,13.76524302571089,25.339228562843086,20.620001336184895,6.972251591231788,4.2309448401462015,4.878708738684276
2,1,6.390468268650986,6.3457585684845075,14.583785428609152,27.573278814784306,22.079383971156854,7.582923948547304,4.2044325072480575,4.610416729270725
2,1,6.7159319687536065,6.680956790108935,14.582650031798252,26.77526017831729,21.651809951995002,7.501767418668291,4.103667745267659,4.543150130026638
2,1,6.8603698864042,6.379266728424502,13.59760574514755,24.90173571156745,20.21239862548813,7.311205160874297,3.9245188048699102,4.785242385706352
2,1,7.048971914613166,6.9234240608183155,13.791464264584453,25.93713072850836,21.401217316204278,7.301646602025687,4.364018763964954,4.778976416987109
2,1,6.786315942683785,6.608853702841249,14.27820561346189,26.537874324497324,22.169923469107108,6.6926676262564655,4.253710673842484,4.6023771578830805
2,1,7.054266299736855,7.061569410309178,14.936211121191723,28.505037223648998,23.89594510672934,7.248702379088101,4.441888113710736,4.674069021270934
2,1,7.1920247141599525,6.740845607760911,13.720673643911967,29.760554241831546,25.84374267883238,7.718437891112781,4.552552642462744,4.811395333074782
2,1,7.092691218439735,6.438407711068713,13.625742166279679,23.774231856857586,22.20206331514059,7.203258746901487,4.511811172803348,4.739954096218107
2,1,6.834047369014422,6.43839471413501,12.559709831985208,24.977745779147792,24.432805041587937,7.5574649542706895,4.566720030488401,4.496816907641175
2,1,7.241606280936298,6.4354959350601035,12.994273453518824,24.590883801543924,21.368715419635183,6.346031109042447,4.4649227811905865,4.973551232726801
2,1,7.5467923664356675,6.8549550977878795,12.444743157360966,25.392786057197647,20.1949207804677,5.660733184030718,4.346467398274822,4.696901033377572
2,1,7.586828507296916,6.779547170126732,12.670754993811558,25.96962855698832,20.882629233626094,5.509555485664376,4.255562059736499,5.078154581323503
2,1,7.419551022069425,6.739900393364219,13.325194832771052,26.193007095127868,21.578842897109368,5.806710235813992,4.390205901660805,5.207545986175733
2,1,8.210766267811657,7.098712543484272,13.623220579797106,27.570072052691142,22.889034910685652,6.119254581513355,4.12399921802976,5.585534472542068
2,1,8.427995733106217,7.299112611379708,12.914329447290003,28.089662691045902,23.736775300778124,6.239301183841737,4.427711349713717,5.662766567221563
2,1,8.510689475973551,7.249912478426843,13.609379329767624,28.198997313799204,23.700190127106676,6.020184061590909,4.3555145499478165,5.947245021141581
2,1,7.960229858435033,6.824702548058844,12.178685325133076,24.80851240035999,21.74644947140027,6.365460992871729,4.255001483535899,5.400819098995459
2,1,7.371143849270871,6.688892082909395,13.395338676145236,24.69261996996128,21.209186629478086,5.722951443684188,4.719214033998659,5.662149059560129
2,1,7.686731613474103,6.914448681697135,12.097286461225059,24.12141554360271,21.576792140967417,6.122125085965514,4.59958216207627,5.569653824276919
2,1,6.990151693477731,6.234069844403911,12.582308498702536,26.552676410073826,22.354842155253664,6.418650822708057,4.560585245348873,5.386785300839686
2,1,6.562197093971274,6.218421918257384,12.258325479330614,25.384977295919906,22.727253822792317,6.724785690555191,4.4829740172223,4.979014623669033
2,1,6.708402503889417,6.387785981386686,12.513086515581572,26.5633666818066,24.72855349244899,6.949541555881808,3.9847368127562057,4.6113907840828885
2,1,6.624914592554735,5.904728795094905,12.272800620540023,26.483587942959748,25.44722241569602,6.518331527368171,4.2083051433603815,4.721564942035609
2,1,6.02191438830506,5.240075536140103,10.755128299514,24.28016867571236,25.29465993279425,6.008787667300119,4.108828188096327,4.1420752827911755
2,1,6.428992668767534,5.462873688246504,12.180863033596076,27.817836036780864,28.243149083547788,6.630410612031336,4.383329260109894,4.3363060670457445
2,1,7.039258292722142,5.446829602815186,11.824719935829275,27.201396909220833,30.509070484373453,6.897867178038852,4.41484820532128,4.760104078897085
2,1,6.895931761633008,5.703776781085166,10.47441289684967,25.29219160515883,31.46220232802995,6.988824418640657,4.677864558290627,4.953906989113906
2,1,6.386326873372472,5.619732158089358,11.271626228984049,25.358192949705032,29.37987493959342,6.622495765753331,4.616359256575617,4.49416566118485
2,1,6.330755208221828,5.305905172870662,9.666470575307775,19.863211176081798,27.936546095397116,6.606997967682216,4.551377553593254,4.385371854064869
2,1,6.04469395206296,5.113516437022842,9.994724007145166,20.535427005995704,29.354908139214796,6.458566140849396,4.759439053851688,4.29631193981641
2,1,6.305837953644762,5.368606528708874,10.837768468411918,21.540590711257835,29.026279216932995,7.006763511352033,5.11347952205892,4.6036494057982145
2,1,5.629577395672643,5.225141146165788,11.381877754712571,22.980503275221366,29.489773081299287,6.842211664444524,5.099033397650291,4.394266938454511
2,1,5.786335884044677,5.339711048854651,11.997273369643368,25.406670399684774,29.728600695685625,7.3542359843100416,5.050218409528835,4.6572439929740765
2,1,5.952176579634689,5.779029701800189,12.762010633574416,26.92803475971794,30.7599748249456,7.665337154642949,5.040080657548071,4.66207403020544
2,1,6.183786176850929,5.613189478430285,12.110954455553411,25.502913517924643,25.406893082813788,6.946472365404663,4.87329065499369,4.825780838292145
2,1,6.688976400701236,5.845172624956648,11.65283793672971,25.259236875924323,27.312403039741813,7.209560555811318,4.930818397771387,4.962979715519871
2,1,6.980470461086759,5.910887966992714,11.464396886321019,23.82269069410707,25.18640807760732,6.91443154638192,4.9975392489126165,5.160563404210471
2,1,6.7550605284437335,5.494952471546301,10.86501671475106,20.619254261265073,20.594616687832005,6.350268012942453,4.318983130477167,5.0641721125712955
2,1,6.6728274657521185,5.667220491832431,11.68258126411239,21.709253882084905,20.266627892524493,6.113779433095552,4.548725012620593,4.994846649389787
2,1,6.169657351557639,5.241442756606812,12.899600150642435,24.16011516141269,22.54065066095579,7.357931013599201,5.20207055383524,5.045691953455796
2,1,5.675849206493222,4.389827235473604,12.122757718644396,22.636942911724585,22.689524249655353,6.305758453699613,4.4923846605640705,4.667339582870174
2,1,5.061754822432342,4.51589501715532,9.831886267647171,20.38944631858473,21.251520862125695,5.038389563939905,3.88008625799301,4.007604086910043
2,1,5.011686396603851,4.5092139925732795,10.754860337217963,20.989749910041436,21.44217333354678,5.555850757958037,3.9695107734846555,4.088465532836851
2,1,4.6774206352072145,4.231162297927598,11.08732023759098,21.845957631645494,20.679638624194208,5.903850579151744,4.104409072664787,3.8064476999223564
2,1,4.939455125667057,4.350177752523451,12.024624161361892,21.390207053068075,19.98353627702766,5.8562319984454865,4.061433783073575,3.942199429039543
2,1,5.025732652987026,4.623367755597158,11.984058354465104,22.135916836143043,19.64962598007557,5.740890646751783,4.417333534059539,4.229529242393841
2,1,5.108459331527146,4.677696105159609,11.392135273567462,19.654158074573647,22.102381252243827,5.928939531121877,4.135720740499982,3.8546414789458487
2,1,4.882812783119632,4.896883127541162,12.206193629026368,19.63992841360096,24.378702138883835,6.137371093544914,4.093465275291284,3.6561342701622905
2,1,4.99224662519648,5.021121190452954,11.986573104871603,20.66890241756836,23.680700135300913,6.620844957405777,3.936418914992583,3.5757454285609533
2,1,5.098205304551799,5.160823839025038,11.991010638260443,21.306402834988067,24.113693722550405,6.745820740163512,4.191093773632775,3.6916960571098323
2,1,5.172007674681804,5.322230488199144,12.551494801191643,23.40212803432469,24.59276873178037,6.910487449002328,4.271179037133559,3.8340394136525844
2,1,5.384943722673882,5.474607501864424,12.190500481327154,23.579041027689826,25.81230795702262,7.047663750790904,4.424489458720627,4.071838593793255
2,1,5.829810617477612,5.063593807529883,10.458949604504037,20.029647517336645,22.90958818944402,6.374645346371126,4.366566626143531,4.068977960311028
2,1,6.061472727866291,5.248113818035268,11.114837660373553,21.536993329283224,24.059534710143847,6.546484410255002,4.4508964912363345,4.242637320184065
2,1,6.370801128083914,5.375902539371182,11.768331831112922,23.068046587844915,25.352701014393485,6.67208875683522,4.196438624751821,4.227885656284494
2,1,6.376048610098237,5.126684935841297,11.656953616002268,24.33471752206961,25.89027576580014,6.545220205630097,4.34107133434983,4.665662535895913
2,1,6.911124933026201,5.35612380807246,11.721671884539086,25.019980737582618,26.06046068691785,6.724938683858291,4.561474042626398,5.109091600352691
2,1,7.079496066385628,5.666158194215869,11.532522905920322,23.4852645757611,25.777692903469102,6.532404332998525,4.205467604201443,4.934552451054104
2,1,6.169020820396498,5.085389586204137,10.50158662734012,19.536268782163052,21.903026381335724,5.858770980196246,3.643925639302786,4.110813027814774
2,1,6.5046467147657765,5.112158665074894,10.290162881126887,18.93449780188895,22.772151136503787,5.796546704108862,3.962420726888898,4.2772501827778715
2,1,6.7575963356875555,5.6827968164675475,10.801594875076944,20.89376849116779,20.444451117674976,5.159647505008141,3.9972792176618284,4.455794048670916
2,1,6.716020346070276,5.8200635218098595,10.71656402289651,20.96659347859569,22.20625728325775,5.316945247602216,4.200571612182844,4.435774655334387
2,1,6.22893701023835,5.0099756239225774,9.371602523385569,18.412657148498074,23.106154501066566,5.5964981577278605,4.117466224534882,4.127457529431577
2,1,5.475991762788621,4.431384827959271,9.748279776638055,19.860910056854504,24.70088836913746,6.04927844407798,3.8869411673359715,4.062524948172624
2,1,5.7845281319625315,4.913913245732125,10.798150205051622,22.44359054891454,25.846873372968503,6.1307111852616005,3.9690347918375117,4.339288032826908
2,1,6.295781984036299,4.81684194469837,9.25650472160219,18.242783402395386,22.31255234436709,5.472865694217037,3.9761712972402425,4.54244703145518
2,1,5.890748658381568,4.757571688887463,8.626885402151462,17.346702738869364,23.317005093895038,5.934986025242163,4.046432138024897,4.270701609464779
2,2,8.902880136354845,8.248811093089696,22.51132594563097,34.32508311907292,22.888854207837234,7.1492840284897525,4.040680252387938,5.573888444852584
2,2,8.58389508237882,7.456732679365568,21.302161603863592,30.568550719186867,21.950405445657363,7.371172124836148,3.6775155563659463,5.87584430072358
2,2,9.408927879862716,7.543865835552358,21.986492304723555,31.87568414138666,23.576811031399846,7.906105989790875,4.122861540868144,6.56693761430657
2,2,9.159186221216984,8.478272719029091,21.07748421438718,32.201533363035495,23.714787871698295,7.282013037650699,4.295636270942186,6.454083221783037
2,2,9.359388126552897,8.909531776794834,20.969913115372478,31.929961844764474,23.879370327120974,7.744016555556541,4.110074276382679,6.591900059178048
2,2,9.676234617975275,9.803435788545173,22.238320798463366,32.85443484300372,23.038639699633524,7.748962325967899,4.636354294493532,7.023246381183174
2,2,10.182509300907393,10.262226617524028,23.646522842776715,35.66873393437618,25.603611985311016,7.5487258530984365,4.735932392789395,7.09962471166242
2,2,9.418117943196217,9.907072679566669,22.47329166754531,31.473201167606124,22.75492247757527,7.776351288800204,4.812567894515991,6.787003486254069
2,2,8.618741947425887,9.107904445604973,24.448063091834342,33.27852674019148,23.648308630760766,7.503206884661272,5.201466137551248,6.838806669575628
2,2,7.616694420231165,8.484393560353285,24.693275168411944,34.98105130689353,26.079000384476732,7.966849271486089,4.177502476671078,5.372132658748504
2,2,8.037002465149145,8.775527922308807,25.029926133470756,32.10696850996348,24.210910347338135,8.159283146005693,3.896164731918614,5.554522585903325
2,2,7.127803283353658,7.972263139319257,22.698205975848623,28.852214342784464,18.77839339637497,7.512987473242372,3.616916780176035,4.792073024528331
2,2,7.938110462820041,8.972645628904973,22.423456970381242,27.901089173616104,18.093571850391662,6.921805786739649,3.5941852543212995,4.820628805293403
2,2,8.208233923136286,8.800717969290057,21.02650303454907,27.26348817802493,19.12935067561654,7.091592804997567,3.836995084658448,4.9964822112501
2,2,8.72314021281694,9.258166944502822,20.857947766715164,28.719334698745552,18.8284747928752,6.4212038523300565,3.498029111669871,5.527479980601915
2,2,8.526377909813526,8.570003630411582,22.450003017297878,32.17846970326073,19.826652806091815,6.666474468676847,3.9063665499070273,5.453350250410544
2,2,7.822816804014751,8.743535643344801,22.755830415266914,33.946323519186066,19.82033564807854,6.796661685752577,3.8541993399928187,4.97282166522167
2,2,7.32646486098627,8.28763960868466,23.97946623474247,35.715935426933484,20.307724137627254,6.623129614233204,3.9672170883260067,4.98766207543864
2,2,7.675144982107399,7.482464235640554,22.351183001094796,33.6536665504431,20.604129264758093,6.613556332570598,4.019866585965188,5.39056169565936
2,2,8.12174052755482,7.2975418910222745,22.2000793124199,32.27266177214593,19.855930351071677,6.7830862419351465,4.172853338543268,5.604881234860838
2,2,8.782656042332977,8.283426968083623,20.474176152853392,30.053228584770423,18.890325046219573,6.646772760727167,4.566517625851457,5.974550407109069
2,2,6.305186747031901,6.912075799394284,21.349220591847295,31.416790989422225,19.239118097257666,6.7118134652115,4.162928495647021,4.757672089049807
2,2,6.295951458863054,6.33387647399058,21.847675454399,32.35207608496945,19.291686519542232,7.051354776457592,4.35201287382006,4.661532815432909
2,2,6.464002411343935,6.881267160266989,21.765141605688182,32.7849689544658,18.839432917727194,7.282434502363038,4.456843700486189,4.970636126627562
2,2,6.7135045627243075,7.073129009912808,21.333551649276092,31.897013978709534,20.07988480436339,7.741131285150569,4.6124904040892885,5.148549780650746
2,2,7.3439888340740795,7.921569083941604,21.627257281390193,30.726389031017774,18.26048231262514,6.519517847685748,4.356676703802769,5.444718305205279
2,2,7.533634862732932,7.842528081457326,22.37578838733355,33.38121108647659,20.031962902253195,6.733345259260028,4.6211291582538365,5.728380277403914
2,2,7.810198098519446,8.32111082476085,22.62392697537715,32.843817202764306,18.706763151677972,6.230862827945385,4.745387880907619,5.87416395182415
2,2,6.883184209383321,8.121389976445856,21.195566496986967,30.800353046314044,18.952313660892205,6.263038837396692,4.154456571976812,5.129844551637205
2,2,7.728424711622469,8.193741605782403,20.589268476925366,32.99174562064782,19.19945767048587,6.34985423080524,4.500973591330848,5.5227082766031925
2,2,7.205670421050661,6.7322420086190835,20.08839872604599,30.502046553103305,19.860231670031414,7.091908578951733,4.424238874798185,5.087085889157716
2,2,7.235562788092486,7.384250908971834,21.309320706507513,32.097215729467855,21.840662109907587,7.131199241411142,4.64648622785052,5.34047093738452
2,2,7.330623273560509,7.133032399581922,20.074867489773943,29.556542469116014,21.475033725366718,7.8104237641498875,4.855422526705511,5.432207323362889
2,2,7.754215062447378,6.608036710719304,18.112300722568033,26.54790410152519,18.7235429228967,6.320271725738306,4.16163893158216,5.133662261567446
2,2,7.180613147436229,6.2887641547753415,17.574662611090137,28.163153758424976,19.88546060429162,6.710996279070858,3.5952475560177786,4.48370896424063
2,2,7.2335745654747345,6.45291062014154,19.188750224971432,29.37416451116508,20.030385752291977,6.703506609817051,3.8712591878402836,4.640541176214932
2,2,7.283656891181419,6.460833976551482,19.627316990793677,31.321379858353456,20.630933499868657,6.841903233202764,4.1084701695965125,4.622846143189201
2,2,7.093449996958627,6.010635826972063,20.10231438199333,30.79080236663055,19.439279780849507,6.368005461369713,3.90984449135321,4.497634218256379
2,2,7.1993269850829735,5.269062677513413,17.87662251056337,26.377822960026087,16.94007478319224,5.685535773082391,3.5578998454082202,4.251284547246006
2,2,7.465619565852345,5.561601704049096,18.35610210611569,26.6665467921471,16.536220586136608,5.8141823828269725,3.6417560733337027,4.614548669845562
2,2,7.733045337126046,5.436863527443417,17.951904124631227,26.48156027285667,17.181329371158427,6.184357289641014,3.604531056025126,4.665421358258484
2,2,7.358226591912658,6.025302287695621,18.841963213236987,28.1805129694401,18.451666248720354,6.474122228250808,3.519904932357222,4.513184828193188
2,2,6.631323181352454,5.207475137547781,17.107948710420676,28.194919688026282,19.075331440200397,7.328277186352704,3.491904577699724,4.338431334666158
2,2,6.3231932683213,5.346286526243875,17.224783045787174,28.12998731212906,18.66160547792602,6.662742459527524,3.7129871639770196,4.047890406103612
2,2,6.870522528408138,5.379194771803036,16.049700968726683,27.551807262642612,18.223041410872412,7.079289732651317,3.756894819538749,4.1273309063388695
2,2,6.951614329897069,5.6072230161771435,17.904924828006298,27.929176775159064,19.48966293546193,7.8039886981188955,3.763050071647983,4.017470221080368
2,2,7.003613519406948,6.6890992920277155,18.578553305276508,30.23818411260094,20.807964903039206,7.856485598286825,3.9185291988159614,4.187516313570208
2,2,7.628048993987921,6.846182133118488,18.90762924702743,30.583709856634407,20.40781272354812,6.706548239317261,3.8717325956295743,4.229913586140474
2,2,7.421552931973721,7.180062621071513,19.356522940882698,29.378766435014047,18.202889527706162,6.908266505860971,3.998638774781306,4.230118444561979
2,2,7.052009166315207,6.937090529812366,20.10424712268547,27.6016638780659,18.827768793620002,7.332800717564334,4.233244208682232,4.2453591375069815
2,2,7.55611893680556,7.089586030860385,20.501873399813263,29.273449780128722,20.334066123240117,7.662109730926123,4.336681384488674,4.360475155011626
2,2,8.568605559579506,7.323056999036352,20.427303101989043,30.646777289422023,20.287615373354615,8.006942123283803,4.535894774928917,4.798114795204088
2,2,7.55693328062104,6.980962401708284,21.003130549037913,29.587342631722603,20.547144141864,7.576208651462722,4.013347372346276,3.916573151802212
2,2,7.244301757406428,7.016508191324133,21.51294691780319,31.728259982883667,22.53404101283421,7.97644148266369,4.07004476279207,4.121782891806185
2,2,7.660347825015051,6.910008220009618,21.755183800535896,28.631599918114315,21.430294621102917,8.325712305635435,4.533996563929153,4.463364349918628
2,2,7.95268900720827,7.4805646087170565,22.458603795443345,30.870489845685395,22.373645224880033,8.574440874491888,4.443918148462506,4.7034625336483735
2,2,7.169025412879409,6.719823872970428,23.15163726912586,32.43263708528725,23.748160700668965,8.716618612488695,4.644939823845644,4.590158414760879
2,2,6.610198109354637,7.036939627852838,25.629942910853106,35.320235292244135,23.19633317377852,8.656795778889832,4.624994044545845,4.707527364235348
2,2,6.416318230995872,7.227434854433298,26.331091107823113,37.29822941022709,24.78397023802545,8.573349203473976,4.4707537200193945,4.536760384431552
2,2,7.004292667045988,7.784166433880763,27.26268401820459,38.91356447546618,24.83044782754267,8.938649747959609,4.511621014653291,4.637685027403578
2,2,7.104704758211198,6.93103096096443,26.444535012044977,37.99914477490003,25.205425210654703,9.66712162100784,4.387480446537578,4.471068779184367
2,2,7.436666750961038,7.342043092273925,27.23472815626777,37.27088234139443,23.84295116240796,9.012706688377948,4.04476141544089,4.557579395017369
2,2,7.775153913263178,6.806903796743333,22.459401070637288,31.647878686513423,23.441379104371258,8.817009679228955,4.250793221114985,5.006638728349652
2,2,6.843196216953922,6.550166234155096,21.790182161341225,31.836146601646877,23.093750421503486,8.722586490351688,3.7845304521171665,4.389068757219468
2,2,6.935213241841333,6.2651124220144805,21.736677087326985,32.68363304513406,20.14930566509689,8.075007792089504,3.746044222112439,4.712171908457071
2,2,6.95745492159982,5.792453871296526,21.583017494678952,32.062879547245075,19.767954895188332,8.29376699582528,3.85290928445155,4.724572085039215
2,2,6.482202742429127,5.678826963781205,20.86715370962752,30.80212624127639,20.109544028492447,8.26470406917089,3.835903681500028,4.379572727146559
2,2,6.391383873925956,5.532757643142449,21.33832323541539,31.929768561163108,20.790248498381512,8.901401951007042,4.259365776426678,4.236918906002849
2,2,6.422149875738226,5.383181155754163,20.247004066719505,32.610403996675075,20.559497125146624,8.015353938275842,4.394255668055508,4.302839560466684
2,2,6.41827266254974,5.740884077007275,20.11490396930209,31.234854295930703,20.714247063715913,7.897087755432308,3.84856536253748,4.08465863905751
2,2,6.258275118462438,6.043639436450605,22.188169993929264,33.76523774865862,23.385739767173344,8.798809916277596,4.029448153511245,4.188744313733392
2,2,6.386512936570188,6.12933482845437,20.97013512045878,30.224579265350595,21.40654136204879,7.963176237232244,3.7735933599102895,4.140733520403147
2,2,6.726126126446018,6.16415156656314,21.772117842401112,33.15663089227842,22.00655600480694,7.951803921974488,3.8437096131508337,4.486623731044248
2,2,7.003406339613418,6.680138675702057,20.795934005183735,29.54162643755608,21.24483731032808,7.426345372299036,4.070540277741204,4.7132181624672995
2,2,6.835287939718572,6.7646920638718075,18.1219810517364,27.43044337765447,20.466117763627153,7.675633958759769,3.6113105606704035,4.1166843170048635
2,2,6.9078868607339246,7.545965133763733,20.28716533470698,28.5217023976275,21.46415878430618,7.386915537145743,3.288071250173546,4.258917625409606
2,2,6.883927147165303,6.634230427343494,19.13375286473336,25.71749691403479,18.281232845404155,7.286773510104396,3.347293927694409,4.465860567981807
2,2,5.858759088940834,6.554141474587545,20.214795529216794,26.18603815228389,18.492352905875656,7.2106729189540815,3.7523301589097544,4.3005227487656
2,2,5.928624030617646,6.815991981503214,19.59756931282655,27.2323948023755,20.11877001188061,6.718388286452068,3.715255210696259,4.318587083294043
2,2,5.991110939879247,6.726439310745774,20.35881251832509,27.71656761942562,18.81481482376329,6.559335938760433,3.9073033999826916,4.478770875569705
2,2,6.41525853414207,6.678070223314591,19.96123154332127,28.481944168650926,18.55842660578274,6.438810953399474,4.006555546999409,4.397651894821278
2,2,6.255158506330024,6.840551845995764,19.959814727034786,28.30770318730147,18.553236761439056,6.939329506458987,4.146766200536265,4.497220455357005
2,2,7.065038815854311,7.290535906290352,20.512588043619445,29.01097582451826,18.27167337552457,7.712412475364997,4.442601144999747,5.005543311507311
2,2,7.903783513769474,7.798411488557291,21.28292745520393,28.950912264492747,19.603836717566836,8.460914508358314,4.693164983664807,5.502930294695969
2,2,7.600105366746508,8.392820977686835,20.926146592239366,27.29519394141082,19.880812942763225,8.833363687702837,4.900174006653349,5.322161690079118
2,2,7.985749609699674,8.59874966893066,21.571558027897623,28.699647370934496,19.79405086068079,8.242017065951359,4.765934846734708,5.32976050372762
2,2,9.286529804841798,9.139489474457172,22.373115531649557,30.758556041787305,21.656768893842305,8.704966155688538,5.273555989215282,5.889395589973881
2,2,8.06183461357328,8.481057108327986,21.754404604535598,30.367450860170717,22.45438624734014,8.79955008695343,4.9484471688742655,4.905944623052629
2,2,8.584211489125106,8.545181435368466,22.72412731628617,32.34030645820318,21.544028918426314,7.460274725889334,4.475769085106119,4.918234824422563
2,2,9.529217262625652,9.131113450586746,23.248873131455593,30.67140082046657,20.103064012444193,7.340894238231124,4.372654529748636,4.951733328987945
2,2,8.577236762837611,8.150402935662,21.654982957444364,27.656884335195006,21.414405238288975,8.806871909847557,4.642442219641382,4.965134636630676
2,2,7.5132402739424355,7.3741414655646595,20.592094597321886,29.792607025247584,20.64875122185996,7.73539954416018,4.136052797441697,4.382926182603824
2,2,7.985090956029396,7.4113139049414425,22.05341190879261,30.606142935472736,21.544140600548623,7.6065652122590794,4.208994274716115,4.733985713835321
2,2,8.29673061990986,7.898509792286218,23.4014856843611,33.027539985162704,21.564568571088238,7.247301457588025,4.02764751183439,4.82179292858615
2,2,8.451037312092671,7.566470282875785,20.62271063070581,26.674567384550063,19.93026457532163,7.310829636016728,4.364255973009548,4.717108780522124
2,2,8.656314343950683,7.2185506380062385,20.619102016071977,30.214528875400834,20.872038095889852,7.3725709706313305,4.205328186753027,4.7054044598255675
