timestamp,C1,C2,C3,C4,C5,C6,C7,C8,
87397618406,-10,-39,-102,-43,-12,-9,-10,-2,
87397618406,10,30,81,101,62,17,12,16,
87397625718,-11,-33,-12,-48,-5,4,-3,-2,
87397625718,-5,5,-37,-62,-42,-20,-8,1,
87397633393,40,74,106,94,53,21,17,15,
87397633393,11,-28,7,-60,-2,5,6,15,
87397648219,-38,-38,-50,-42,3,-14,-20,-38,
87397648219,9,-62,6,-12,-38,12,19,27,
87397655785,-12,21,-12,69,44,-3,-3,-9,
87397655785,-5,12,-87,-78,21,-15,-18,-20,
87397671058,2,-62,-54,7,-14,4,3,11,
87397671058,-2,-4,60,104,96,34,12,13,
87397685758,-9,7,38,77,10,3,-2,-8,
87397685758,-19,1,-6,-96,14,-5,-9,-20,
87397693369,-3,36,13,-10,-41,-16,-13,-15,
87397693369,18,-26,-27,-1,-41,-2,9,16,
87397708654,-10,-50,-60,6,-33,-2,6,10,
87397708654,-13,-6,-63,8,-12,-5,-10,-11,
87397718689,29,48,99,-15,6,10,9,16,
87397718689,-27,-2,-32,-46,-1,0,-15,-19,
87397738257,-37,-30,-110,-128,-3,5,-6,-28,
87397738257,25,37,108,50,-56,-21,2,27,
87397768503,5,-1,48,108,18,6,-1,-2,
87397768503,-34,-34,-98,-94,-5,2,-6,-25,
87397775774,1,3,11,34,-4,-4,4,6,
87397775774,1,-20,-90,-28,-23,4,0,-10,
87397793854,1,52,94,77,8,-6,-7,-4,
87397793854,-12,7,-9,-39,9,7,6,-14,
87397820684,-26,-49,-85,-128,-7,-6,-14,-18,
87397820684,-5,42,28,-55,-32,-12,-1,-6,
87397843226,-10,-93,-92,-128,-90,-2,6,2,
87397843226,-5,34,-28,74,28,-8,-9,-11,
87397850786,49,27,88,102,102,38,32,50,
87397850786,-41,-21,-69,-77,-11,-23,-33,-44,
87397865897,3,-1,28,57,22,1,3,11,
87397865897,3,1,13,-14,37,7,1,-2,
87397880697,13,20,7,3,-37,-5,2,-3,
87397880697,-19,-63,-46,-25,-64,-11,-6,-6,
87397889732,-2,27,4,15,35,4,-7,-4,
87397889732,6,-3,47,28,24,5,3,3,
87397896199,3,29,62,28,38,10,0,4,
87397896199,8,29,57,119,5,-13,-3,6,
87397912160,-17,0,15,0,-4,4,-11,-17,
87397912160,26,69,52,13,25,9,13,24,
87397925875,-7,-38,30,78,-12,-10,-1,4,
87397925875,-2,14,-52,-19,-28,-14,-4,-6,
87397933395,17,19,0,34,17,8,12,9,
87397933395,-19,-26,33,18,39,18,-9,-25,
87397955727,1,10,15,43,48,9,0,7,
87397955727,-31,-70,-84,-119,-66,-29,-20,-31,
87397963192,0,5,-47,-63,-75,-16,-5,-1,
87397963192,43,66,81,91,48,16,20,37,
87397985695,8,8,-26,-18,5,13,14,14,
87397985695,9,-7,44,29,20,4,2,1,
87397993293,-1,21,51,105,24,3,2,-2,
87397993293,-28,-33,-56,-100,-48,-17,-13,-23,
87398008214,-10,22,-13,-21,-55,-27,-15,-19,
87398008214,28,49,60,10,18,12,19,22,
87398030709,-5,-24,-36,27,11,4,-6,-2,
87398030709,-12,13,56,40,-4,-15,-24,-19,
87398045846,-20,-47,-102,-86,-78,-33,-7,-9,
87398045846,-2,5,18,-104,-34,-7,2,-2,
87398083205,2,-3,98,63,78,15,-9,-14,
87398083205,-22,-124,-128,-93,-84,-18,-2,0,
87398098146,-59,-105,-128,-128,-128,-50,-20,-31,
87398098146,24,94,84,96,30,12,12,16,
87398113165,9,-10,36,99,75,32,11,5,
87398113165,-5,-45,12,87,41,11,7,5,
87398128301,-1,-44,-103,-123,-40,0,9,3,
87398128301,4,32,0,-128,-52,-3,-2,5,
87398135862,-24,-17,-56,-95,-43,-22,-13,-13,
87398135862,-2,41,42,120,13,9,7,-8,
87398158234,3,18,105,-1,-2,11,9,5,
87398158234,-21,-19,-107,-47,-5,-10,-13,-23,
87398173243,31,42,65,-27,5,-6,2,20,
87398173243,-29,-124,-128,-114,-41,-16,-14,-20,
87398180633,3,8,-8,37,22,3,8,15,
87398180633,18,64,101,75,41,23,14,16,
87398195860,3,-14,15,-17,-20,-9,-4,-1,
87398195860,-19,-36,-83,-128,-60,-15,-14,-20,
87398210611,-20,-29,-110,-128,-85,-18,-14,-28,
87398210611,11,20,76,121,61,3,-2,13,
87398233345,13,-18,49,31,33,19,21,23,
87398233345,-12,48,-59,-42,-37,-16,-22,-25,
87398240692,33,45,114,127,71,13,8,15,
87398240692,-19,-67,-106,-128,-44,-7,-9,-18,
87398255693,-31,-77,-102,23,-36,-18,-8,-12,
87398255693,21,69,127,66,25,24,20,19,
87398263295,-10,-4,-33,-23,-20,-5,-8,-4,
87398263295,-6,-37,-91,-88,-48,-27,-12,-7,
87398285720,19,-7,10,8,16,-1,4,17,
87398285720,-2,-5,-56,-29,-34,-3,-3,-4,
87398308188,-8,28,127,95,16,-3,1,-3,
87398308188,-13,-39,-56,-87,-36,-5,-5,-13,
87398323150,-7,-9,-93,-83,-68,-19,-10,-8,
87398323150,10,-30,-77,-128,-37,-16,4,15,
87398338245,-13,-53,-115,-112,-12,-7,-16,-21,
87398338245,-19,-22,-65,-85,-62,-26,-10,-14,
87398353230,7,-8,5,84,31,13,2,-3,
87398353230,3,66,96,84,-7,-15,-11,-6,
87398368279,-9,-6,4,40,16,7,-1,-11,
87398368279,-14,-54,-18,42,7,3,-2,-5,
87398375894,5,17,-14,-128,-12,9,8,8,
87398375894,6,26,-31,111,79,9,-2,4,
87398390707,-5,33,26,121,-53,-15,-6,-10,
87398390707,10,34,127,102,63,15,10,6,
87398405618,4,57,29,-78,26,-3,-6,-8,
87398405618,17,5,-31,55,22,0,1,0,
87398413212,-28,-115,-98,-128,-72,-4,-4,-15,
87398413212,-19,-21,-99,-54,10,1,-2,0,
87398435702,23,23,57,85,22,10,16,20,
87398435702,-2,35,48,86,63,-1,-9,-10,
87398443188,8,28,40,-70,-10,-7,-1,5,
87398443188,-6,-32,-44,-27,-25,-4,-3,-6,
87398458364,10,62,10,4,58,9,3,4,
87398458364,21,8,68,93,35,5,9,16,
87398473216,-30,-26,7,-83,-28,-8,-9,-24,
87398473216,-10,5,-11,-83,-49,-9,-9,-14,
87398488219,-13,12,-32,54,-3,-5,-7,-13,
87398488219,7,-41,-36,-125,-52,10,5,8,
87398495817,-6,-6,-55,69,11,-26,-14,-4,
87398495817,13,31,51,53,60,9,13,14,
87398518369,10,66,54,-17,-49,-18,-7,-2,
87398518369,27,14,110,127,42,9,7,13,
87398533197,-17,-13,21,127,110,17,-5,-13,
87398533197,6,11,83,41,98,31,11,10,
87398540637,-38,-60,-115,-81,-84,-25,-17,-31,
87398540637,0,6,-61,-104,-65,-21,0,1,
87398555666,14,36,127,127,85,39,20,19,
87398555666,-11,15,2,-128,9,8,-17,-21,
87398570720,9,21,60,20,-4,-9,1,8,
87398570720,-8,-42,-61,-52,-40,2,8,1,
87398593368,-4,-27,-62,-65,-2,0,-2,-5,
87398593368,-1,33,66,37,8,-11,-10,-3,
87398600883,-25,-29,-56,-119,-1,12,-3,-16,
87398600883,34,61,36,106,61,17,10,29,
87398615680,27,73,127,127,61,17,4,6,
87398615680,-29,-60,-70,-108,-60,-26,-13,-25,
87398623172,-23,-71,-65,59,-37,-15,-9,-7,
87398623172,3,-4,3,52,10,8,8,6,
87398645792,3,4,-14,-43,13,-8,-5,-5,
87398645792,-8,-28,12,-7,-16,-14,-7,-5,
87398675741,8,23,62,65,98,40,7,3,
87398675741,-27,-40,-59,-69,-31,-14,-16,-25,
87398690645,-3,34,25,-18,-41,-10,-4,-6,
87398690645,23,5,-71,-20,-15,7,21,26,
87398698187,-2,-42,-16,-57,-29,-8,-1,-5,
87398698187,-12,-33,-87,-54,-41,-14,-12,-5,
87398705653,5,37,7,70,56,17,9,7,
87398705653,-5,15,103,69,47,18,-7,-16,
87398735642,31,99,127,127,79,28,13,16,
87398735642,-9,-21,-34,-25,61,11,-7,-21,
87398743210,-40,-67,-101,-123,-75,-24,-17,-33,
87398743210,-14,-56,-128,-128,-74,-24,-4,-9,
87398765854,15,53,20,11,4,-15,-11,-6,
87398765854,-1,-14,14,-88,-69,-6,-5,-8,
87398780685,6,26,-9,-16,29,10,-1,-1,
87398780685,7,-22,-8,95,17,-2,2,4,
87398795851,6,14,16,-77,-61,-8,0,-1,
87398795851,-26,-51,-88,-96,-98,-25,-13,-13,
87398803128,16,52,89,127,36,12,11,16,
87398803128,14,17,4,75,71,14,7,7,
87398810836,-22,-24,-30,-77,-60,-18,-13,-15,
87398810836,16,26,53,67,6,6,13,18,
87398825607,0,-37,-91,-58,-11,7,1,-2,
87398825607,-6,0,-13,-58,-22,-8,-11,-8,
87398840808,17,20,37,59,11,-8,6,21,
87398840808,-18,14,21,-57,-32,-7,-12,-15,
87398878211,0,16,50,87,50,21,8,3,
87398878211,1,-9,-40,-74,-13,-15,-7,-8,
87398885927,21,21,75,108,8,-1,5,12,
87398885927,1,-43,-17,9,45,20,13,7,
87398900861,-19,-28,-104,-106,-81,-25,-17,-22,
87398900861,-20,-40,-37,-18,-22,-4,-5,-13,
87398923121,3,-40,-95,-128,-93,-18,11,8,
87398923121,6,9,-55,41,14,4,-6,-7,
87398938125,15,6,-68,-123,-62,-13,9,12,
87398938125,12,27,25,66,6,5,1,4,
87398945664,15,56,127,105,127,40,16,11,
87398945664,-46,-116,-119,-95,-68,-12,-18,-33,
87398960892,-15,-21,-21,34,0,-1,-9,-8,
87398960892,24,94,103,-1,-8,-1,5,10,
87398975809,3,3,-25,3,25,3,2,8,
87398975809,22,24,93,113,29,11,9,14,
87398990653,-22,-42,-46,-47,-50,-24,-25,-30,
87398990653,11,18,48,-2,-18,-19,-1,14,
87398998207,-7,-24,-64,-128,1,18,8,1,
87398998207,-6,1,-75,-18,13,8,5,4,
87399013101,0,48,109,99,20,8,5,1,
87399013101,-13,-14,10,127,47,-7,-20,-21,
87399028208,-10,-39,-103,-75,-48,-16,-5,-5,
87399028208,10,-45,-111,-120,-66,-9,-8,-5,
87399050881,-4,-2,27,50,-76,-22,0,10,
87399050881,-5,15,42,90,-3,-24,-13,-9,
87399065876,-2,21,105,88,61,22,7,4,
87399065876,-4,35,19,-108,17,-1,-1,-4,
87399073204,13,29,13,92,36,9,1,-2,
87399073204,5,-32,36,-18,66,14,1,-6,
87399088133,-38,-59,-55,-66,-6,8,-4,-21,
87399088133,44,57,19,93,-14,-4,17,40,
87399125763,-19,-20,-21,-83,34,-1,-10,-25,
87399125763,-15,-35,-64,-33,-38,-7,-2,-12,
87399133386,-7,-44,-99,3,-30,1,-2,-4,
87399133386,32,63,40,26,-26,0,8,24,
87399148302,11,20,-56,20,-4,-17,-4,9,
87399148302,-16,-22,83,-28,-66,-8,-1,-7,
87399178121,13,8,-97,-128,-113,-35,-10,1,
87399178121,4,-27,-11,55,-48,1,3,7,
87399185767,26,40,105,104,36,14,15,26,
87399185767,0,2,61,127,97,26,5,0,
87399208092,-2,-14,-45,-71,-16,-15,-16,-8,
87399208092,-24,-45,-74,-50,-2,-3,-2,-11,
87399215561,28,80,84,73,77,16,13,24,
87399215561,14,53,54,71,43,-2,-4,-5,
87399238169,65,127,127,127,127,54,26,39,
87399238169,-27,-14,-60,-50,58,6,-18,-29,
87399245846,-67,-103,-128,-128,-116,-44,-29,-58,
87399245846,4,-8,-128,-128,-112,-34,-4,0,
87399260657,35,69,127,127,61,16,9,23,
87399260657,-16,-53,-66,-128,-34,-10,-5,-14,
87399275687,-38,-73,-96,-113,-98,-36,-14,-24,
87399275687,14,51,109,69,28,-4,-2,7,
87399283327,15,29,69,105,107,35,7,8,
87399283327,-22,-3,-50,-77,-16,-16,-22,-24,
87399298160,-21,-30,-77,-122,-61,-11,-6,-14,
87399298160,12,-17,76,98,17,8,13,16,
87399305603,-19,-36,-123,-128,-95,-22,-20,-17,
87399305603,32,52,127,127,87,22,18,29,
87399320785,25,-12,-54,-96,-55,-15,8,16,
87399320785,-17,-41,-128,-97,-105,-17,-10,-15,
87399335689,6,-3,75,102,39,17,6,10,
87399335689,-18,13,41,95,42,11,-6,-9,
87399350659,9,37,93,56,45,9,9,9,
87399350659,-2,-17,-84,-128,-67,-23,-5,-5,
87399365625,3,-21,-78,-26,-77,-28,-12,-11,
87399365625,-17,-58,-35,78,15,10,8,1,
87399373279,27,44,58,63,86,35,15,23,
87399373279,-30,-16,-4,-40,-72,-7,-15,-22,
87399380680,-36,-78,-128,-94,-73,-22,-11,-25,
87399380680,23,73,127,127,68,22,19,17,
87399395823,-14,-56,-51,-63,-43,-13,-5,-10,
87399395823,-6,-34,19,58,-60,-6,-3,6,
87399410574,-14,-17,-8,-1,-20,-12,-6,-2,
87399410574,21,33,24,53,49,17,14,22,
87399418303,-5,42,122,99,91,21,-6,-13,
87399418303,2,22,14,-117,-11,-12,-3,3,
87399433370,-24,-40,-44,21,-14,-2,-11,-16,
87399433370,-6,14,-10,54,29,13,4,-1,
87399455616,26,82,127,11,3,5,13,19,
87399455616,11,-16,-20,-14,-14,-15,-10,-7,
87399463118,-30,-60,-108,-93,-96,-20,-14,-16,
87399463118,25,33,77,127,82,15,16,33,
87399478152,20,50,50,36,83,25,3,4,
87399478152,-49,-59,-87,-64,-111,-18,-22,-39,
87399493279,38,55,91,127,94,18,20,33,
87399493279,2,-12,41,38,19,-6,2,3,
87399508091,34,83,80,60,80,45,16,18,
87399508091,-31,-34,-98,-128,9,-10,-22,-30,
87399523141,-20,-84,-110,-128,-86,-12,2,3,
87399523141,4,-6,7,118,-36,-24,-6,1,
87399538108,-7,22,-5,-50,5,6,-6,-16,
87399538108,-19,-36,-82,-115,-70,-14,-10,-17,
87399553357,22,7,14,-7,8,6,12,20,
87399553357,3,-8,-1,-29,0,14,0,4,
87399568330,-14,-26,-8,78,-25,-9,-7,-8,
87399568330,21,44,72,-9,19,6,8,21,
87399575641,-30,-43,-95,3,14,-8,-12,-21,
87399575641,27,75,46,33,91,16,14,17,
87399590611,21,50,99,114,127,46,17,8,
87399590611,-21,3,-35,-13,-13,-12,-18,-23,
87399598158,-26,-34,-111,-96,-111,-24,-8,-23,
87399598158,-18,-64,-128,-128,-114,-26,-12,-16,
87399620762,0,-11,31,23,-14,-1,2,6,
87399620762,4,50,127,127,127,27,4,-1,
87399635799,-33,-34,-109,-128,-51,-8,-12,-27,
87399635799,11,17,2,107,-18,-10,0,4,
87399643124,24,44,117,127,55,-3,2,12,
87399643124,-32,-54,-90,-76,-17,1,-11,-26,
87399673142,2,16,-35,-52,-33,-8,-1,6,
87399673142,18,5,6,16,-7,3,15,15,
87399695600,9,26,100,127,72,25,12,12,
87399695600,-14,-19,-26,-11,42,3,-9,-15,
87399710593,1,16,28,-57,-30,-13,-6,-9,
87399710593,-10,-46,-37,35,-22,-13,-15,-7,
87399725817,11,20,-24,41,-25,-20,-2,8,
87399725817,-9,5,18,-34,11,-1,-8,-12,
87399740818,-21,-74,-128,-128,-45,-21,-18,-21,
87399740818,7,38,74,116,13,2,0,4,
87399755664,-12,-14,-82,-123,-32,-4,-10,-24,
87399755664,2,-53,-99,-5,-90,-23,3,12,
87399770675,-15,-9,54,78,32,1,-9,-8,
87399770675,3,29,48,70,27,-2,-2,4,
87399778162,1,19,-1,-60,-16,2,-1,-2,
87399778162,16,34,36,79,20,-2,0,4,
87399793314,-25,-58,-86,-128,-54,-8,-1,-12,
87399793314,14,27,-16,11,0,-4,2,6,
87399808113,5,10,81,-38,9,6,3,5,
87399808113,6,-7,39,97,74,15,-6,0,
87399830688,-12,-27,-1,45,-3,-4,-5,-10,
87399830688,-9,-16,-40,-27,-42,-5,-3,-7,
87399845721,8,7,13,4,-19,-9,8,14,
87399845721,0,13,-34,17,13,3,-5,-8,
87399853277,19,54,112,85,-14,-6,5,13,
87399853277,-6,-26,-43,-81,9,5,5,-1,
87399860744,-23,-33,-44,-94,-10,-11,-22,-27,
87399860744,-17,-60,-123,-128,-62,-1,0,-7,
87399883120,21,31,84,99,45,17,17,15,
87399883120,-17,-20,-22,-16,-29,-8,-9,-16,
87399898163,-6,-21,-22,-32,-18,3,3,-2,
87399898163,-14,-31,-76,-101,-58,0,-7,-9,
87399905598,-4,3,-23,12,64,2,-4,-3,
87399905598,23,30,43,109,64,9,8,18,
87399928248,3,-2,-3,-23,-43,-17,-2,2,
87399928248,2,5,-7,-44,-20,3,5,1,
87399943296,-10,-9,-60,-83,-77,-23,-11,-8,
87399943296,-13,-53,-105,0,-25,-12,-2,-8,
87399980607,13,31,52,-85,-69,-12,2,10,
87399980607,7,35,-8,35,23,-13,-2,5,
87399995593,-24,-61,-128,-36,-37,-9,-8,-16,
87399995593,5,-16,-2,55,7,6,4,7,
87400003102,8,29,70,49,98,34,10,11,
87400003102,7,55,72,9,-27,-18,-7,2,
87400025608,-33,-84,-128,-116,-101,-18,-9,-16,
87400025608,15,28,29,81,-20,5,15,16,
87400040616,16,50,51,-58,0,5,-2,6,
87400040616,22,54,97,102,43,10,11,21,
87400048096,-15,-12,36,104,5,-11,-6,-13,
87400048096,-41,-78,-111,-128,-128,-51,-25,-37,
87400070721,-23,-57,-85,34,8,-7,-10,-24,
87400070721,7,29,-73,-113,-38,-22,1,10,
87400078299,37,52,126,88,-21,0,12,24,
87400078299,-30,-64,-79,-27,-15,-5,-13,-28,
87400100700,3,5,22,-7,13,9,0,6,
87400100700,-8,11,55,-75,7,7,-3,-11,
87400108135,3,-7,-101,-128,-68,-27,-6,1,
87400108135,-4,-24,-78,-86,33,10,3,6,
87400123125,-26,-69,-100,-124,46,0,-9,-15,
87400123125,22,41,88,127,40,14,18,26,
87400138255,14,74,56,45,26,7,9,9,
87400138255,-25,-23,-67,-26,-51,-20,-22,-35,
87400160855,29,17,8,53,67,27,23,35,
87400160855,10,-1,59,29,24,12,14,14,
87400183239,-10,23,6,-29,2,-5,-13,-17,
87400183239,-6,-50,-96,-125,-95,-18,-3,1,
87400198339,-20,-1,-24,-14,23,-3,-16,-21,
87400198339,-23,21,-20,98,0,-13,-16,-32,
87400213093,16,14,47,54,-1,2,3,5,
87400213093,-11,-40,-45,-44,0,1,0,-6,
87400228358,-4,-24,-17,-86,-25,-24,-16,-5,
87400228358,-18,-35,-27,-80,-11,-2,-10,-16,
87400235684,-16,-4,-29,-80,-9,-8,-9,-15,
87400235684,-20,-50,-101,-96,-24,-4,-9,-16,
87400243367,23,45,-22,6,-6,-1,3,17,
87400243367,11,34,102,120,35,1,4,2,
87400265795,-18,-40,-49,-58,-52,-9,-8,-16,
87400265795,-9,2,-19,-54,-66,-25,-4,0,
87400280825,-15,17,50,59,18,-6,-4,-1,
87400280825,5,-1,-1,39,-11,3,3,1,
87400288148,-20,-19,-68,-65,-30,-10,-6,-16,
87400288148,21,59,100,-47,-37,-13,-4,10,
87400303259,-15,-60,-81,-128,-85,-8,-3,-2,
87400303259,-9,-21,-123,-1,0,-6,-5,-1,
87400318107,-46,-106,-128,-115,-6,-9,-17,-42,
87400318107,-4,11,5,-91,-102,-29,-4,-2,
87400333366,24,50,93,117,76,17,13,20,
87400333366,14,39,94,112,68,15,7,11,
87400340596,-30,-21,-20,-70,-3,0,-20,-30,
87400340596,2,21,37,127,77,7,4,0,
87400363171,-8,-36,-102,-65,13,12,0,-7,
87400363171,-8,-41,-121,-115,-97,-44,-10,-6,
87400378164,7,-13,-79,-73,-94,-22,9,15,
87400378164,13,13,55,49,49,13,4,11,
